{
  "AcquisitionMatrixPE": 72,
  "AcquisitionNumber": 1,
  "AcquisitionTime": "09:10:56.265000",
  "BandwidthPerPixelPhaseEncode": 28.935,
  "BaseResolution": 72,
  "CoilString": "C:HEA;HEP",
  "ConversionSoftware": "dcm2niix",
  "ConversionSoftwareVersion": "v1.0.20190410  GCC6.3.0",
  "DerivedVendorReportedEchoSpacing": 0.000480003,
  "DeviceSerialNumber": "35149",
  "DwellTime": 2.9e-06,
  "EchoTime": 0.025,
  "EffectiveEchoSpacing": 0.000480003,
  "FlipAngle": 75,
  "ImageOrientationPatientDICOM": [0.999092, -0.00211298, -0.0425646, -0.016662, 0.899905, -0.435768],
  "ImageType": [
    "ORIGINAL",
    "PRIMARY",
    "M",
    "ND",
    "MOSAIC"
],
  "ImagingFrequency": 123.255,
  "InPlanePhaseEncodingDirectionDICOM": "COL",
  "InstitutionAddress": "Street_StreetNo_Rehovot_91E162_District_IL_ZIP",
  "InstitutionName": "Weizmann",
  "InstitutionalDepartmentName": "Department",
  "MRAcquisitionType": "2D",
  "MagneticFieldStrength": 3,
  "Manufacturer": "Siemens",
  "ManufacturersModelName": "TrioTim",
  "Modality": "MR",
  "PartialFourier": 1,
  "PatientPosition": "HFS",
  "PercentPhaseFOV": 100,
  "PhaseEncodingDirection": "j-",
  "PhaseEncodingSteps": 72,
  "PhaseResolution": 1,
  "PixelBandwidth": 2395,
  "ProcedureStepDescription": "Weizmann_Sobel",
  "ProtocolName": "exp1_30_to_AC-PC",
  "PulseSequenceDetails": "%SiemensSeq%_ep2d_pace",
  "ReceiveCoilName": "HeadMatrix",
  "ReconMatrixPE": 72,
  "RepetitionTime": 2,
  "SAR": 0.124246,
  "ScanOptions": "FS",
  "ScanningSequence": "EP",
  "SequenceName": "_epfid2d1_72",
  "SequenceVariant": "SK",
  "SeriesDescription": "exp1_30_to_AC-PC",
  "SeriesNumber": 3,
  "ShimSetting": [2307, 9499, -5312, 1305, 165, -303, -235, 188],
  "SliceThickness": 3.7,
  "SliceTiming": [0.995, 0, 1.0525, 0.06, 1.1125, 0.1175, 1.17, 0.175, 1.2275, 0.235, 1.2875, 0.2925, 1.345, 0.3525, 1.4025, 0.41, 1.4625, 0.4675, 1.52, 0.5275, 1.58, 0.585, 1.6375, 0.645, 1.695, 0.7025, 1.755, 0.76, 1.8125, 0.82, 1.8725, 0.8775, 1.93, 0.935],
  "SoftwareVersions": "syngo_MR_B17",
  "SpacingBetweenSlices": 3.7,
  "StationName": "MRC35149",
  "TaskName": "bodyodor",
  "TotalReadoutTime": 0.0340802,
  "TxRefAmp": 279.355,
  "VendorReportedEchoSpacing": 0.00048,
  "dcmmeta_affine": [
    [-2.997274398803711, -0.049985889345407486, -0.14513196051120758, 112.3219223022461],
    [0.006338946986943483, 2.699713945388794, -1.6135015487670898, -66.3184814453125],
    [-0.12769383192062378, 1.307304859161377, 3.326491117477417, -70.37342834472656],
    [0.0, 0.0, 0.0, 1.0]
],
  "dcmmeta_reorient_transform": [
    [0.0, -1.0, 0.0, 71.0],
    [1.0, 0.0, 0.0, 0.0],
    [0.0, 0.0, 1.0, 0.0],
    [0.0, 0.0, 0.0, 1.0]
],
  "dcmmeta_shape": [72, 72, 34, 450],
  "dcmmeta_slice_dim": 2,
  "dcmmeta_version": 0.6,
  "global": {
    "const": {
      "AcquisitionMatrix": [72, 0, 0, 72],
      "AngioFlag": "N",
      "BitsAllocated": 16,
      "BitsStored": 12,
      "Columns": 432,
      "EchoNumbers": 1,
      "EchoTime": 25.0,
      "EchoTrainLength": 1,
      "FlipAngle": 75.0,
      "HighBit": 11,
      "ImageOrientationPatient": [0.99909148183104, -0.0021129822772, -0.0425646125151, -0.0166619635307, 0.89990464853464, -0.4357682899398],
      "ImagePositionPatient": [-639.2848667609, -610.168707529, 280.74498575962],
      "ImageType": [
        "ORIGINAL",
        "PRIMARY",
        "M",
        "ND",
        "MOSAIC"
],
      "ImagedNucleus": "1H",
      "ImagingFrequency": 123.254935,
      "InPlanePhaseEncodingDirection": "COL",
      "MRAcquisitionType": "2D",
      "MagneticFieldStrength": 3.0,
      "Manufacturer": "SIEMENS",
      "ManufacturerModelName": "TrioTim",
      "Modality": "MR",
      "NumberOfAverages": 1.0,
      "NumberOfPhaseEncodingSteps": 72,
      "PercentPhaseFieldOfView": 100.0,
      "PercentSampling": 100.0,
      "PerformedProcedureStepStartTime": "090607.609000",
      "PhotometricInterpretation": "MONOCHROME2",
      "PixelBandwidth": 2395.0,
      "PixelRepresentation": 0,
      "PixelSpacing": [3.0, 3.0],
      "ProtocolName": "exp1_30_to_AC-PC",
      "RepetitionTime": 2000.0,
      "Rows": 432,
      "SAR": 0.12424591951444,
      "SamplesPerPixel": 1,
      "ScanOptions": "FS",
      "ScanningSequence": "EP",
      "SequenceName": "*epfid2d1_72",
      "SequenceVariant": "SK",
      "SeriesDescription": "exp1_30_to_AC-PC",
      "SeriesNumber": 3,
      "SeriesTime": "091140.375000",
      "SliceLocation": -38.754903378593,
      "SliceThickness": 3.7000000476837,
      "SmallestImagePixelValue": 0,
      "SoftwareVersions": "syngo MR B17",
      "SpacingBetweenSlices": 3.6999990819887,
      "SpecificCharacterSet": "ISO_IR 100",
      "StudyID": "2",
      "StudyTime": "090603.890000",
      "TransmitCoilName": "Body",
      "VariableFlipAngleFlag": "N",
      "WindowCenterWidthExplanation": "Algo1",
      "dBdt": 0.0},
    "slices": {}
  },
  "time": {
    "samples": {
      "AcquisitionNumber": [1, 2, 3, 4, 5, 6, 7, 8, 9, 10, 11, 12, 13, 14, 15, 16, 17, 18, 19, 20, 21, 22, 23, 24, 25, 26, 27, 28, 29, 30, 31, 32, 33, 34, 35, 36, 37, 38, 39, 40, 41, 42, 43, 44, 45, 46, 47, 48, 49, 50, 51, 52, 53, 54, 55, 56, 57, 58, 59, 60, 61, 62, 63, 64, 65, 66, 67, 68, 69, 70, 71, 72, 73, 74, 75, 76, 77, 78, 79, 80, 81, 82, 83, 84, 85, 86, 87, 88, 89, 90, 91, 92, 93, 94, 95, 96, 97, 98, 99, 100, 101, 102, 103, 104, 105, 106, 107, 108, 109, 110, 111, 112, 113, 114, 115, 116, 117, 118, 119, 120, 121, 122, 123, 124, 125, 126, 127, 128, 129, 130, 131, 132, 133, 134, 135, 136, 137, 138, 139, 140, 141, 142, 143, 144, 145, 146, 147, 148, 149, 150, 151, 152, 153, 154, 155, 156, 157, 158, 159, 160, 161, 162, 163, 164, 165, 166, 167, 168, 169, 170, 171, 172, 173, 174, 175, 176, 177, 178, 179, 180, 181, 182, 183, 184, 185, 186, 187, 188, 189, 190, 191, 192, 193, 194, 195, 196, 197, 198, 199, 200, 201, 202, 203, 204, 205, 206, 207, 208, 209, 210, 211, 212, 213, 214, 215, 216, 217, 218, 219, 220, 221, 222, 223, 224, 225, 226, 227, 228, 229, 230, 231, 232, 233, 234, 235, 236, 237, 238, 239, 240, 241, 242, 243, 244, 245, 246, 247, 248, 249, 250, 251, 252, 253, 254, 255, 256, 257, 258, 259, 260, 261, 262, 263, 264, 265, 266, 267, 268, 269, 270, 271, 272, 273, 274, 275, 276, 277, 278, 279, 280, 281, 282, 283, 284, 285, 286, 287, 288, 289, 290, 291, 292, 293, 294, 295, 296, 297, 298, 299, 300, 301, 302, 303, 304, 305, 306, 307, 308, 309, 310, 311, 312, 313, 314, 315, 316, 317, 318, 319, 320, 321, 322, 323, 324, 325, 326, 327, 328, 329, 330, 331, 332, 333, 334, 335, 336, 337, 338, 339, 340, 341, 342, 343, 344, 345, 346, 347, 348, 349, 350, 351, 352, 353, 354, 355, 356, 357, 358, 359, 360, 361, 362, 363, 364, 365, 366, 367, 368, 369, 370, 371, 372, 373, 374, 375, 376, 377, 378, 379, 380, 381, 382, 383, 384, 385, 386, 387, 388, 389, 390, 391, 392, 393, 394, 395, 396, 397, 398, 399, 400, 401, 402, 403, 404, 405, 406, 407, 408, 409, 410, 411, 412, 413, 414, 415, 416, 417, 418, 419, 420, 421, 422, 423, 424, 425, 426, 427, 428, 429, 430, 431, 432, 433, 434, 435, 436, 437, 438, 439, 440, 441, 442, 443, 444, 445, 446, 447, 448, 449, 450],
      "AcquisitionTime": ["091056.265000", "091058.272500", "091100.280000", "091102.287500", "091104.297500", "091106.305000", "091108.312500", "091110.320000", "091112.327500", "091114.337500", "091116.345000", "091118.352500", "091120.360000", "091122.370000", "091124.377500", "091126.385000", "091128.392500", "091130.400000", "091132.410000", "091134.417500", "091136.425000", "091138.432500", "091140.440000", "091142.450000", "091144.457500", "091146.465000", "091148.472500", "091150.482500", "091152.490000", "091154.497500", "091156.505000", "091158.512500", "091200.522500", "091202.530000", "091204.537500", "091206.545000", "091208.552500", "091210.562500", "091212.570000", "091214.577500", "091216.585000", "091218.595000", "091220.602500", "091222.610000", "091224.617500", "091226.625000", "091228.635000", "091230.642500", "091232.650000", "091234.657500", "091236.665000", "091238.675000", "091240.682500", "091242.690000", "091244.697500", "091246.705000", "091248.715000", "091250.722500", "091252.730000", "091254.737500", "091256.747500", "091258.755000", "091300.762500", "091302.770000", "091304.777500", "091306.787500", "091308.795000", "091310.802500", "091312.810000", "091314.817500", "091316.827500", "091318.835000", "091320.842500", "091322.850000", "091324.860000", "091326.867500", "091328.875000", "091330.882500", "091332.890000", "091334.900000", "091336.907500", "091338.915000", "091340.922500", "091342.930000", "091344.940000", "091346.947500", "091348.955000", "091350.962500", "091352.972500", "091354.980000", "091356.987500", "091358.995000", "091401.002500", "091403.012500", "091405.020000", "091407.027500", "091409.035000", "091411.042500", "091413.052500", "091415.060000", "091417.067500", "091419.075000", "091421.085000", "091423.092500", "091425.100000", "091427.107500", "091429.115000", "091431.125000", "091433.132500", "091435.140000", "091437.147500", "091439.155000", "091441.165000", "091443.172500", "091445.180000", "091447.187500", "091449.195000", "091451.205000", "091453.212500", "091455.220000", "091457.227500", "091459.237500", "091501.245000", "091503.252500", "091505.260000", "091507.267500", "091509.277500", "091511.285000", "091513.292500", "091515.300000", "091517.307500", "091519.317500", "091521.325000", "091523.332500", "091525.340000", "091527.350000", "091529.357500", "091531.365000", "091533.372500", "091535.380000", "091537.390000", "091539.397500", "091541.405000", "091543.412500", "091545.420000", "091547.430000", "091549.437500", "091551.445000", "091553.452500", "091555.462500", "091557.470000", "091559.477500", "091601.485000", "091603.492500", "091605.502500", "091607.510000", "091609.517500", "091611.525000", "091613.532500", "091615.542500", "091617.550000", "091619.557500", "091621.565000", "091623.572500", "091625.582500", "091627.590000", "091629.597500", "091631.605000", "091633.615000", "091635.622500", "091637.630000", "091639.637500", "091641.645000", "091643.655000", "091645.662500", "091647.670000", "091649.677500", "091651.685000", "091653.695000", "091655.702500", "091657.710000", "091659.717500", "091701.727500", "091703.735000", "091705.742500", "091707.750000", "091709.757500", "091711.767500", "091713.775000", "091715.782500", "091717.790000", "091719.797500", "091721.807500", "091723.815000", "091725.822500", "091727.830000", "091729.840000", "091731.847500", "091733.855000", "091735.862500", "091737.870000", "091739.880000", "091741.887500", "091743.895000", "091745.902500", "091747.910000", "091749.920000", "091751.927500", "091753.935000", "091755.942500", "091757.950000", "091759.960000", "091801.967500", "091803.975000", "091805.982500", "091807.992500", "091810.000000", "091812.007500", "091814.015000", "091816.022500", "091818.032500", "091820.040000", "091822.047500", "091824.055000", "091826.062500", "091828.072500", "091830.080000", "091832.087500", "091834.095000", "091836.105000", "091838.112500", "091840.120000", "091842.127500", "091844.135000", "091846.145000", "091848.152500", "091850.160000", "091852.167500", "091854.175000", "091856.185000", "091858.192500", "091900.200000", "091902.207500", "091904.217500", "091906.225000", "091908.232500", "091910.240000", "091912.247500", "091914.257500", "091916.265000", "091918.272500", "091920.280000", "091922.287500", "091924.297500", "091926.305000", "091928.312500", "091930.320000", "091932.327500", "091934.337500", "091936.345000", "091938.352500", "091940.360000", "091942.370000", "091944.377500", "091946.385000", "091948.392500", "091950.400000", "091952.410000", "091954.417500", "091956.425000", "091958.432500", "092000.440000", "092002.450000", "092004.457500", "092006.465000", "092008.472500", "092010.482500", "092012.490000", "092014.497500", "092016.505000", "092018.512500", "092020.522500", "092022.530000", "092024.537500", "092026.545000", "092028.552500", "092030.562500", "092032.570000", "092034.577500", "092036.585000", "092038.595000", "092040.602500", "092042.610000", "092044.617500", "092046.625000", "092048.635000", "092050.642500", "092052.650000", "092054.657500", "092056.665000", "092058.675000", "092100.682500", "092102.690000", "092104.697500", "092106.705000", "092108.715000", "092110.722500", "092112.730000", "092114.737500", "092116.747500", "092118.755000", "092120.762500", "092122.770000", "092124.777500", "092126.787500", "092128.795000", "092130.802500", "092132.810000", "092134.817500", "092136.827500", "092138.835000", "092140.842500", "092142.850000", "092144.860000", "092146.867500", "092148.875000", "092150.882500", "092152.890000", "092154.900000", "092156.907500", "092158.915000", "092200.922500", "092202.930000", "092204.940000", "092206.947500", "092208.955000", "092210.962500", "092212.972500", "092214.980000", "092216.987500", "092218.995000", "092221.002500", "092223.012500", "092225.020000", "092227.027500", "092229.035000", "092231.042500", "092233.052500", "092235.060000", "092237.067500", "092239.075000", "092241.085000", "092243.092500", "092245.100000", "092247.107500", "092249.115000", "092251.125000", "092253.132500", "092255.140000", "092257.147500", "092259.155000", "092301.165000", "092303.172500", "092305.180000", "092307.187500", "092309.195000", "092311.205000", "092313.212500", "092315.220000", "092317.227500", "092319.237500", "092321.245000", "092323.252500", "092325.260000", "092327.267500", "092329.277500", "092331.285000", "092333.292500", "092335.300000", "092337.307500", "092339.317500", "092341.325000", "092343.332500", "092345.340000", "092347.350000", "092349.357500", "092351.365000", "092353.372500", "092355.380000", "092357.390000", "092359.397500", "092401.405000", "092403.412500", "092405.420000", "092407.430000", "092409.437500", "092411.445000", "092413.452500", "092415.462500", "092417.470000", "092419.477500", "092421.485000", "092423.492500", "092425.502500", "092427.510000", "092429.517500", "092431.525000", "092433.532500", "092435.542500", "092437.550000", "092439.557500", "092441.565000", "092443.572500", "092445.582500", "092447.590000", "092449.597500", "092451.605000", "092453.615000", "092455.622500", "092457.630000", "092459.637500", "092501.645000", "092503.655000", "092505.662500", "092507.670000", "092509.677500", "092511.685000", "092513.695000", "092515.702500", "092517.710000", "092519.717500", "092521.727500", "092523.735000", "092525.742500", "092527.750000", "092529.757500", "092531.767500", "092533.775000", "092535.782500", "092537.790000", "092539.797500", "092541.807500", "092543.815000", "092545.822500", "092547.830000", "092549.840000", "092551.847500", "092553.855000", "092555.862500", "092557.870000"],
      "ContentTime": ["091140.375000", "091140.390000", "091140.390000", "091140.390000", "091140.390000", "091140.390000", "091140.390000", "091140.406000", "091140.406000", "091140.406000", "091140.406000", "091140.406000", "091140.406000", "091140.421000", "091140.421000", "091140.421000", "091140.421000", "091140.421000", "091140.421000", "091140.421000", "091140.437000", "091140.437000", "091220.375000", "091220.375000", "091220.375000", "091220.375000", "091220.375000", "091220.375000", "091220.390000", "091220.390000", "091220.390000", "091220.390000", "091220.390000", "091220.390000", "091220.390000", "091220.406000", "091220.406000", "091220.406000", "091220.406000", "091220.406000", "091220.406000", "091220.406000", "091300.375000", "091300.375000", "091300.390000", "091300.390000", "091300.390000", "091300.390000", "091300.390000", "091300.390000", "091300.406000", "091300.406000", "091300.406000", "091300.406000", "091300.406000", "091300.406000", "091300.421000", "091300.421000", "091300.421000", "091300.421000", "091300.421000", "091300.421000", "091340.375000", "091340.375000", "091340.375000", "091340.390000", "091340.390000", "091340.390000", "091340.390000", "091340.390000", "091340.390000", "091340.390000", "091340.406000", "091340.406000", "091340.406000", "091340.406000", "091340.406000", "091340.406000", "091340.406000", "091340.421000", "091340.421000", "091340.421000", "091420.375000", "091420.375000", "091420.375000", "091420.390000", "091420.390000", "091420.390000", "091420.390000", "091420.390000", "091420.390000", "091420.406000", "091420.406000", "091420.406000", "091420.406000", "091420.406000", "091420.406000", "091420.406000", "091420.421000", "091420.421000", "091420.421000", "091420.421000", "091500.375000", "091500.375000", "091500.375000", "091500.375000", "091500.375000", "091500.375000", "091500.390000", "091500.390000", "091500.390000", "091500.390000", "091500.390000", "091500.390000", "091500.390000", "091500.406000", "091500.406000", "091500.406000", "091500.406000", "091500.406000", "091500.406000", "091500.406000", "091540.375000", "091540.375000", "091540.390000", "091540.390000", "091540.390000", "091540.390000", "091540.406000", "091540.406000", "091540.406000", "091540.406000", "091540.406000", "091540.406000", "091540.406000", "091540.421000", "091540.421000", "091540.421000", "091540.421000", "091540.437000", "091540.437000", "091540.437000", "091620.375000", "091620.375000", "091620.375000", "091620.375000", "091620.375000", "091620.390000", "091620.390000", "091620.390000", "091620.390000", "091620.390000", "091620.390000", "091620.390000", "091620.390000", "091620.406000", "091620.406000", "091620.406000", "091620.406000", "091620.406000", "091620.406000", "091620.406000", "091700.375000", "091700.375000", "091700.375000", "091700.375000", "091700.375000", "091700.390000", "091700.390000", "091700.390000", "091700.390000", "091700.390000", "091700.390000", "091700.390000", "091700.406000", "091700.406000", "091700.406000", "091700.406000", "091700.406000", "091700.406000", "091700.406000", "091700.421000", "091740.375000", "091740.375000", "091740.375000", "091740.375000", "091740.375000", "091740.390000", "091740.390000", "091740.390000", "091740.390000", "091740.390000", "091740.390000", "091740.390000", "091740.406000", "091740.406000", "091740.406000", "091740.406000", "091740.406000", "091740.406000", "091740.406000", "091740.421000", "091820.375000", "091820.375000", "091820.375000", "091820.375000", "091820.390000", "091820.390000", "091820.390000", "091820.390000", "091820.390000", "091820.390000", "091820.390000", "091820.406000", "091820.406000", "091820.406000", "091820.406000", "091820.406000", "091820.421000", "091820.421000", "091820.421000", "091820.421000", "091900.375000", "091900.375000", "091900.375000", "091900.390000", "091900.390000", "091900.390000", "091900.390000", "091900.406000", "091900.406000", "091900.406000", "091900.406000", "091900.421000", "091900.421000", "091900.421000", "091900.421000", "091900.421000", "091900.421000", "091900.421000", "091900.437000", "091900.437000", "091940.375000", "091940.375000", "091940.375000", "091940.375000", "091940.375000", "091940.375000", "091940.390000", "091940.390000", "091940.390000", "091940.390000", "091940.390000", "091940.390000", "091940.390000", "091940.406000", "091940.406000", "091940.406000", "091940.406000", "091940.421000", "091940.421000", "091940.421000", "092020.375000", "092020.375000", "092020.375000", "092020.375000", "092020.375000", "092020.390000", "092020.390000", "092020.390000", "092020.390000", "092020.390000", "092020.390000", "092020.390000", "092020.390000", "092020.406000", "092020.406000", "092020.406000", "092020.421000", "092020.421000", "092020.421000", "092020.421000", "092100.375000", "092100.375000", "092100.375000", "092100.375000", "092100.375000", "092100.390000", "092100.390000", "092100.390000", "092100.390000", "092100.390000", "092100.390000", "092100.390000", "092100.406000", "092100.406000", "092100.406000", "092100.421000", "092100.421000", "092100.421000", "092100.421000", "092100.421000", "092140.375000", "092140.375000", "092140.375000", "092140.375000", "092140.375000", "092140.390000", "092140.390000", "092140.390000", "092140.390000", "092140.390000", "092140.390000", "092140.390000", "092140.406000", "092140.406000", "092140.406000", "092140.406000", "092140.406000", "092140.406000", "092140.406000", "092140.421000", "092220.375000", "092220.375000", "092220.375000", "092220.375000", "092220.375000", "092220.390000", "092220.390000", "092220.390000", "092220.390000", "092220.390000", "092220.390000", "092220.390000", "092220.406000", "092220.406000", "092220.406000", "092220.421000", "092220.421000", "092220.421000", "092220.421000", "092220.421000", "092300.375000", "092300.375000", "092300.375000", "092300.375000", "092300.375000", "092300.375000", "092300.390000", "092300.390000", "092300.390000", "092300.390000", "092300.390000", "092300.390000", "092300.390000", "092300.406000", "092300.406000", "092300.406000", "092300.406000", "092300.406000", "092300.406000", "092300.406000", "092340.375000", "092340.375000", "092340.375000", "092340.375000", "092340.375000", "092340.390000", "092340.390000", "092340.390000", "092340.390000", "092340.390000", "092340.390000", "092340.390000", "092340.406000", "092340.406000", "092340.406000", "092340.406000", "092340.406000", "092340.406000", "092340.406000", "092340.421000", "092420.375000", "092420.375000", "092420.375000", "092420.375000", "092420.375000", "092420.390000", "092420.390000", "092420.390000", "092420.390000", "092420.390000", "092420.390000", "092420.390000", "092420.406000", "092420.406000", "092420.406000", "092420.406000", "092420.421000", "092420.421000", "092420.421000", "092420.421000", "092500.375000", "092500.375000", "092500.390000", "092500.390000", "092500.390000", "092500.390000", "092500.390000", "092500.390000", "092500.390000", "092500.406000", "092500.406000", "092500.406000", "092500.406000", "092500.406000", "092500.406000", "092500.406000", "092500.421000", "092500.421000", "092500.421000", "092500.421000", "092540.375000", "092540.375000", "092540.375000", "092540.375000", "092540.375000", "092540.390000", "092540.390000", "092540.390000", "092540.390000", "092540.390000", "092540.406000", "092540.406000", "092540.406000", "092540.406000", "092540.406000", "092540.421000", "092540.421000", "092540.421000", "092540.421000", "092540.437000", "092556.296000", "092556.312000", "092556.328000", "092556.328000", "092556.328000", "092556.328000", "092556.328000", "092556.328000"],
