{
  "AcquisitionMatrixPE": 72,
  "AcquisitionNumber": 1,
  "AcquisitionTime": "10:53:22.837500",
  "BandwidthPerPixelPhaseEncode": 28.935,
  "BaseResolution": 72,
  "CoilString": "C:HEA;HEP",
  "ConversionSoftware": "dcm2niix",
  "ConversionSoftwareVersion": "v1.0.20190410  GCC6.3.0",
  "DerivedVendorReportedEchoSpacing": 0.000480003,
  "DeviceSerialNumber": "35149",
  "DwellTime": 2.9e-06,
  "EchoTime": 0.025,
  "EffectiveEchoSpacing": 0.000480003,
  "FlipAngle": 75,
  "ImageOrientationPatientDICOM": [0.999591, 0.0283859, -0.00358358, -0.0268396, 0.886923, -0.461136],
  "ImageType": [
    "ORIGINAL",
    "PRIMARY",
    "M",
    "ND",
    "MOSAIC"
],
  "ImagingFrequency": 123.254,
  "InPlanePhaseEncodingDirectionDICOM": "COL",
  "InstitutionAddress": "Street_StreetNo_Rehovot_91E162_District_IL_ZIP",
  "InstitutionName": "Weizmann",
  "InstitutionalDepartmentName": "Department",
  "MRAcquisitionType": "2D",
  "MagneticFieldStrength": 3,
  "Manufacturer": "Siemens",
  "ManufacturersModelName": "TrioTim",
  "Modality": "MR",
  "PartialFourier": 1,
  "PatientPosition": "HFS",
  "PercentPhaseFOV": 100,
  "PhaseEncodingDirection": "j-",
  "PhaseEncodingSteps": 72,
  "PhaseResolution": 1,
  "PixelBandwidth": 2395,
  "ProcedureStepDescription": "Weizmann_Sobel",
  "ProtocolName": "exp1_30_to_AC-PC",
  "PulseSequenceDetails": "%SiemensSeq%_ep2d_pace",
  "ReceiveCoilName": "HeadMatrix",
  "ReconMatrixPE": 72,
  "RepetitionTime": 2,
  "SAR": 0.127241,
  "ScanOptions": "FS",
  "ScanningSequence": "EP",
  "SequenceName": "_epfid2d1_72",
  "SequenceVariant": "SK",
  "SeriesDescription": "exp1_30_to_AC-PC",
  "SeriesNumber": 3,
  "ShimSetting": [2310, 9313, -5341, 910, 137, -607, 535, 279],
  "SliceThickness": 3.7,
  "SliceTiming": [0.995, 0, 1.0525, 0.06, 1.1125, 0.1175, 1.17, 0.175, 1.2275, 0.235, 1.2875, 0.2925, 1.345, 0.3525, 1.4025, 0.41, 1.4625, 0.4675, 1.52, 0.5275, 1.58, 0.585, 1.6375, 0.6425, 1.695, 0.7025, 1.755, 0.76, 1.8125, 0.82, 1.87, 0.8775, 1.93, 0.935],
  "SoftwareVersions": "syngo_MR_B17",
  "SpacingBetweenSlices": 3.7,
  "StationName": "MRC35149",
  "TaskName": "bodyodor",
  "TotalReadoutTime": 0.0340802,
  "TxRefAmp": 270.628,
  "VendorReportedEchoSpacing": 0.00048,
  "dcmmeta_affine": [
    [-2.998771905899048, -0.08051887154579163, 0.03667221590876579, 103.71676635742188],
    [-0.08515769988298416, 2.6607697010040283, -1.7058621644973755, -54.816959381103516],
    [-0.01075074728578329, 1.3834092617034912, 3.2830915451049805, -78.13774871826172],
    [0.0, 0.0, 0.0, 1.0]
],
  "dcmmeta_reorient_transform": [
    [0.0, -1.0, 0.0, 71.0],
    [1.0, 0.0, 0.0, 0.0],
    [0.0, 0.0, 1.0, 0.0],
    [0.0, 0.0, 0.0, 1.0]
],
  "dcmmeta_shape": [72, 72, 34, 450],
  "dcmmeta_slice_dim": 2,
  "dcmmeta_version": 0.6,
  "global": {
    "const": {
      "AcquisitionMatrix": [72, 0, 0, 72],
      "AngioFlag": "N",
      "BitsAllocated": 16,
      "BitsStored": 12,
      "Columns": 432,
      "EchoNumbers": 1,
      "EchoTime": 25.0,
      "EchoTrainLength": 1,
      "FlipAngle": 75.0,
      "HighBit": 11,
      "ImageOrientationPatient": [0.99959061548165, 0.02838590104179, -0.0035835824336, -0.0268396235952, 0.88692324745445, -0.4611364090268],
      "ImagePositionPatient": [-623.28546281461, -628.36463288254, 271.03310478982],
      "ImageType": [
        "ORIGINAL",
        "PRIMARY",
        "M",
        "ND",
        "MOSAIC"
],
      "ImagedNucleus": "1H",
      "ImagingFrequency": 123.254484,
      "InPlanePhaseEncodingDirection": "COL",
      "MRAcquisitionType": "2D",
      "MagneticFieldStrength": 3.0,
      "Manufacturer": "SIEMENS",
      "ManufacturerModelName": "TrioTim",
      "Modality": "MR",
      "NumberOfAverages": 1.0,
      "NumberOfPhaseEncodingSteps": 72,
      "PercentPhaseFieldOfView": 100.0,
      "PercentSampling": 100.0,
      "PerformedProcedureStepStartTime": "103620.421000",
      "PhotometricInterpretation": "MONOCHROME2",
      "PixelBandwidth": 2395.0,
      "PixelRepresentation": 0,
      "PixelSpacing": [3.0, 3.0],
      "ProtocolName": "exp1_30_to_AC-PC",
      "RepetitionTime": 2000.0,
      "Rows": 432,
      "SAR": 0.12724064108011,
      "SamplesPerPixel": 1,
      "ScanOptions": "FS",
      "ScanningSequence": "EP",
      "SequenceName": "*epfid2d1_72",
      "SequenceVariant": "SK",
      "SeriesDescription": "exp1_30_to_AC-PC",
      "SeriesNumber": 3,
      "SeriesTime": "105413.812000",
      "SliceLocation": -43.032343536326,
      "SliceThickness": 3.7000000476837,
      "SmallestImagePixelValue": 0,
      "SoftwareVersions": "syngo MR B17",
      "SpacingBetweenSlices": 3.7000001137025,
      "SpecificCharacterSet": "ISO_IR 100",
      "StudyID": "1",
      "StudyTime": "103620.281000",
      "TransmitCoilName": "Body",
      "VariableFlipAngleFlag": "N",
      "WindowCenterWidthExplanation": "Algo1",
      "dBdt": 0.0},
    "slices": {}
  },
  "time": {
    "samples": {
      "AcquisitionNumber": [1, 2, 3, 4, 5, 6, 7, 8, 9, 10, 11, 12, 13, 14, 15, 16, 17, 18, 19, 20, 21, 22, 23, 24, 25, 26, 27, 28, 29, 30, 31, 32, 33, 34, 35, 36, 37, 38, 39, 40, 41, 42, 43, 44, 45, 46, 47, 48, 49, 50, 51, 52, 53, 54, 55, 56, 57, 58, 59, 60, 61, 62, 63, 64, 65, 66, 67, 68, 69, 70, 71, 72, 73, 74, 75, 76, 77, 78, 79, 80, 81, 82, 83, 84, 85, 86, 87, 88, 89, 90, 91, 92, 93, 94, 95, 96, 97, 98, 99, 100, 101, 102, 103, 104, 105, 106, 107, 108, 109, 110, 111, 112, 113, 114, 115, 116, 117, 118, 119, 120, 121, 122, 123, 124, 125, 126, 127, 128, 129, 130, 131, 132, 133, 134, 135, 136, 137, 138, 139, 140, 141, 142, 143, 144, 145, 146, 147, 148, 149, 150, 151, 152, 153, 154, 155, 156, 157, 158, 159, 160, 161, 162, 163, 164, 165, 166, 167, 168, 169, 170, 171, 172, 173, 174, 175, 176, 177, 178, 179, 180, 181, 182, 183, 184, 185, 186, 187, 188, 189, 190, 191, 192, 193, 194, 195, 196, 197, 198, 199, 200, 201, 202, 203, 204, 205, 206, 207, 208, 209, 210, 211, 212, 213, 214, 215, 216, 217, 218, 219, 220, 221, 222, 223, 224, 225, 226, 227, 228, 229, 230, 231, 232, 233, 234, 235, 236, 237, 238, 239, 240, 241, 242, 243, 244, 245, 246, 247, 248, 249, 250, 251, 252, 253, 254, 255, 256, 257, 258, 259, 260, 261, 262, 263, 264, 265, 266, 267, 268, 269, 270, 271, 272, 273, 274, 275, 276, 277, 278, 279, 280, 281, 282, 283, 284, 285, 286, 287, 288, 289, 290, 291, 292, 293, 294, 295, 296, 297, 298, 299, 300, 301, 302, 303, 304, 305, 306, 307, 308, 309, 310, 311, 312, 313, 314, 315, 316, 317, 318, 319, 320, 321, 322, 323, 324, 325, 326, 327, 328, 329, 330, 331, 332, 333, 334, 335, 336, 337, 338, 339, 340, 341, 342, 343, 344, 345, 346, 347, 348, 349, 350, 351, 352, 353, 354, 355, 356, 357, 358, 359, 360, 361, 362, 363, 364, 365, 366, 367, 368, 369, 370, 371, 372, 373, 374, 375, 376, 377, 378, 379, 380, 381, 382, 383, 384, 385, 386, 387, 388, 389, 390, 391, 392, 393, 394, 395, 396, 397, 398, 399, 400, 401, 402, 403, 404, 405, 406, 407, 408, 409, 410, 411, 412, 413, 414, 415, 416, 417, 418, 419, 420, 421, 422, 423, 424, 425, 426, 427, 428, 429, 430, 431, 432, 433, 434, 435, 436, 437, 438, 439, 440, 441, 442, 443, 444, 445, 446, 447, 448, 449, 450],
      "AcquisitionTime": ["105322.837500", "105324.845000", "105326.852500", "105328.860000", "105330.870000", "105332.877500", "105334.885000", "105336.892500", "105338.900000", "105340.910000", "105342.917500", "105344.925000", "105346.932500", "105348.942500", "105350.950000", "105352.957500", "105354.965000", "105356.972500", "105358.982500", "105400.990000", "105402.997500", "105405.005000", "105407.012500", "105409.022500", "105411.030000", "105413.037500", "105415.045000", "105417.055000", "105419.062500", "105421.070000", "105423.077500", "105425.085000", "105427.095000", "105429.102500", "105431.110000", "105433.117500", "105435.125000", "105437.135000", "105439.142500", "105441.150000", "105443.157500", "105445.165000", "105447.175000", "105449.182500", "105451.190000", "105453.197500", "105455.207500", "105457.215000", "105459.222500", "105501.230000", "105503.237500", "105505.247500", "105507.255000", "105509.262500", "105511.270000", "105513.277500", "105515.287500", "105517.295000", "105519.302500", "105521.310000", "105523.320000", "105525.327500", "105527.335000", "105529.342500", "105531.350000", "105533.360000", "105535.367500", "105537.375000", "105539.382500", "105541.390000", "105543.400000", "105545.407500", "105547.415000", "105549.422500", "105551.432500", "105553.440000", "105555.447500", "105557.455000", "105559.462500", "105601.472500", "105603.480000", "105605.487500", "105607.495000", "105609.502500", "105611.512500", "105613.520000", "105615.527500", "105617.535000", "105619.542500", "105621.552500", "105623.560000", "105625.567500", "105627.575000", "105629.585000", "105631.592500", "105633.600000", "105635.607500", "105637.615000", "105639.625000", "105641.632500", "105643.640000", "105645.647500", "105647.655000", "105649.665000", "105651.672500", "105653.680000", "105655.687500", "105657.697500", "105659.705000", "105701.712500", "105703.720000", "105705.727500", "105707.737500", "105709.745000", "105711.752500", "105713.760000", "105715.767500", "105717.777500", "105719.785000", "105721.792500", "105723.800000", "105725.810000", "105727.817500", "105729.825000", "105731.832500", "105733.840000", "105735.850000", "105737.857500", "105739.865000", "105741.872500", "105743.880000", "105745.890000", "105747.897500", "105749.905000", "105751.912500", "105753.922500", "105755.930000", "105757.937500", "105759.945000", "105801.952500", "105803.962500", "105805.970000", "105807.977500", "105809.985000", "105811.992500", "105814.002500", "105816.010000", "105818.017500", "105820.025000", "105822.032500", "105824.042500", "105826.050000", "105828.057500", "105830.065000", "105832.075000", "105834.082500", "105836.090000", "105838.097500", "105840.105000", "105842.115000", "105844.122500", "105846.130000", "105848.137500", "105850.145000", "105852.155000", "105854.162500", "105856.170000", "105858.177500", "105900.187500", "105902.195000", "105904.202500", "105906.210000", "105908.217500", "105910.227500", "105912.235000", "105914.242500", "105916.250000", "105918.257500", "105920.267500", "105922.275000", "105924.282500", "105926.290000", "105928.300000", "105930.307500", "105932.315000", "105934.322500", "105936.330000", "105938.340000", "105940.347500", "105942.355000", "105944.362500", "105946.370000", "105948.380000", "105950.387500", "105952.395000", "105954.402500", "105956.410000", "105958.420000", "110000.427500", "110002.435000", "110004.442500", "110006.452500", "110008.460000", "110010.467500", "110012.475000", "110014.482500", "110016.492500", "110018.500000", "110020.507500", "110022.515000", "110024.522500", "110026.532500", "110028.540000", "110030.547500", "110032.555000", "110034.565000", "110036.572500", "110038.580000", "110040.587500", "110042.595000", "110044.605000", "110046.612500", "110048.620000", "110050.627500", "110052.635000", "110054.645000", "110056.652500", "110058.660000", "110100.667500", "110102.677500", "110104.685000", "110106.692500", "110108.700000", "110110.707500", "110112.717500", "110114.725000", "110116.732500", "110118.740000", "110120.747500", "110122.757500", "110124.765000", "110126.772500", "110128.780000", "110130.787500", "110132.797500", "110134.805000", "110136.812500", "110138.820000", "110140.830000", "110142.837500", "110144.845000", "110146.852500", "110148.860000", "110150.870000", "110152.877500", "110154.885000", "110156.892500", "110158.900000", "110200.910000", "110202.917500", "110204.925000", "110206.932500", "110208.942500", "110210.950000", "110212.957500", "110214.965000", "110216.972500", "110218.982500", "110220.990000", "110222.997500", "110225.005000", "110227.012500", "110229.022500", "110231.030000", "110233.037500", "110235.045000", "110237.055000", "110239.062500", "110241.070000", "110243.077500", "110245.085000", "110247.095000", "110249.102500", "110251.110000", "110253.117500", "110255.125000", "110257.135000", "110259.142500", "110301.150000", "110303.157500", "110305.165000", "110307.175000", "110309.182500", "110311.190000", "110313.197500", "110315.207500", "110317.215000", "110319.222500", "110321.230000", "110323.237500", "110325.247500", "110327.255000", "110329.262500", "110331.270000", "110333.277500", "110335.287500", "110337.295000", "110339.302500", "110341.310000", "110343.320000", "110345.327500", "110347.335000", "110349.342500", "110351.350000", "110353.360000", "110355.367500", "110357.375000", "110359.382500", "110401.390000", "110403.400000", "110405.407500", "110407.415000", "110409.422500", "110411.432500", "110413.440000", "110415.447500", "110417.455000", "110419.462500", "110421.472500", "110423.480000", "110425.487500", "110427.495000", "110429.502500", "110431.512500", "110433.520000", "110435.527500", "110437.535000", "110439.542500", "110441.552500", "110443.560000", "110445.567500", "110447.575000", "110449.585000", "110451.592500", "110453.600000", "110455.607500", "110457.615000", "110459.625000", "110501.632500", "110503.640000", "110505.647500", "110507.655000", "110509.665000", "110511.672500", "110513.680000", "110515.687500", "110517.697500", "110519.705000", "110521.712500", "110523.720000", "110525.727500", "110527.737500", "110529.745000", "110531.752500", "110533.760000", "110535.767500", "110537.777500", "110539.785000", "110541.792500", "110543.800000", "110545.810000", "110547.817500", "110549.825000", "110551.832500", "110553.840000", "110555.850000", "110557.857500", "110559.865000", "110601.872500", "110603.880000", "110605.890000", "110607.897500", "110609.905000", "110611.912500", "110613.922500", "110615.930000", "110617.937500", "110619.945000", "110621.952500", "110623.962500", "110625.970000", "110627.977500", "110629.985000", "110631.992500", "110634.002500", "110636.010000", "110638.017500", "110640.025000", "110642.032500", "110644.042500", "110646.050000", "110648.057500", "110650.065000", "110652.075000", "110654.082500", "110656.090000", "110658.097500", "110700.105000", "110702.115000", "110704.122500", "110706.130000", "110708.137500", "110710.145000", "110712.155000", "110714.162500", "110716.170000", "110718.177500", "110720.187500", "110722.195000", "110724.202500", "110726.210000", "110728.217500", "110730.227500", "110732.235000", "110734.242500", "110736.250000", "110738.257500", "110740.267500", "110742.275000", "110744.282500", "110746.290000", "110748.300000", "110750.307500", "110752.315000", "110754.322500", "110756.330000", "110758.340000", "110800.347500", "110802.355000", "110804.362500", "110806.370000", "110808.380000", "110810.387500", "110812.395000", "110814.402500", "110816.410000", "110818.420000", "110820.427500", "110822.435000", "110824.442500"],
      "ContentTime": ["105413.828000", "105413.828000", "105413.828000", "105413.828000", "105413.828000", "105413.843000", "105413.843000", "105413.843000", "105413.843000", "105413.843000", "105413.843000", "105413.843000", "105413.859000", "105413.859000", "105413.859000", "105413.859000", "105413.859000", "105413.859000", "105413.859000", "105413.859000", "105413.875000", "105413.875000", "105413.875000", "105413.875000", "105413.890000", "105453.812000", "105453.812000", "105453.812000", "105453.812000", "105453.812000", "105453.812000", "105453.828000", "105453.828000", "105453.828000", "105453.828000", "105453.828000", "105453.828000", "105453.828000", "105453.843000", "105453.843000", "105453.843000", "105453.843000", "105453.843000", "105453.843000", "105453.843000", "105533.812000", "105533.812000", "105533.812000", "105533.828000", "105533.828000", "105533.828000", "105533.828000", "105533.828000", "105533.828000", "105533.828000", "105533.843000", "105533.843000", "105533.843000", "105533.859000", "105533.859000", "105533.859000", "105533.859000", "105533.859000", "105533.859000", "105533.859000", "105613.812000", "105613.812000", "105613.812000", "105613.828000", "105613.828000", "105613.828000", "105613.828000", "105613.828000", "105613.828000", "105613.828000", "105613.843000", "105613.843000", "105613.843000", "105613.843000", "105613.843000", "105613.843000", "105613.859000", "105613.859000", "105613.859000", "105613.859000", "105653.812000", "105653.812000", "105653.812000", "105653.828000", "105653.828000", "105653.828000", "105653.828000", "105653.828000", "105653.843000", "105653.843000", "105653.843000", "105653.843000", "105653.843000", "105653.843000", "105653.843000", "105653.859000", "105653.859000", "105653.859000", "105653.859000", "105653.859000", "105733.812000", "105733.812000", "105733.828000", "105733.828000", "105733.828000", "105733.828000", "105733.828000", "105733.828000", "105733.828000", "105733.843000", "105733.843000", "105733.843000", "105733.843000", "105733.843000", "105733.843000", "105733.843000", "105733.859000", "105733.859000", "105733.859000", "105733.859000", "105813.812000", "105813.812000", "105813.812000", "105813.812000", "105813.828000", "105813.828000", "105813.828000", "105813.828000", "105813.828000", "105813.828000", "105813.843000", "105813.843000", "105813.843000", "105813.843000", "105813.843000", "105813.843000", "105813.843000", "105813.859000", "105813.859000", "105813.859000", "105853.812000", "105853.812000", "105853.812000", "105853.828000", "105853.828000", "105853.828000", "105853.828000", "105853.828000", "105853.828000", "105853.828000", "105853.828000", "105853.843000", "105853.843000", "105853.843000", "105853.843000", "105853.843000", "105853.843000", "105853.843000", "105853.859000", "105853.859000", "105933.812000", "105933.812000", "105933.828000", "105933.828000", "105933.859000", "105933.859000", "105933.875000", "105933.875000", "105933.875000", "105933.875000", "105933.875000", "105933.875000", "105933.890000", "105933.890000", "105933.890000", "105933.890000", "105933.890000", "105933.890000", "105933.890000", "105933.906000", "110013.812000", "110013.828000", "110013.828000", "110013.828000", "110013.828000", "110013.828000", "110013.828000", "110013.843000", "110013.843000", "110013.843000", "110013.843000", "110013.843000", "110013.843000", "110013.843000", "110013.859000", "110013.859000", "110013.859000", "110013.859000", "110013.859000", "110013.875000", "110053.812000", "110053.812000", "110053.812000", "110053.828000", "110053.828000", "110053.828000", "110053.828000", "110053.828000", "110053.828000", "110053.828000", "110053.843000", "110053.843000", "110053.843000", "110053.843000", "110053.843000", "110053.859000", "110053.859000", "110053.859000", "110053.859000", "110053.859000", "110133.812000", "110133.812000", "110133.812000", "110133.828000", "110133.828000", "110133.828000", "110133.828000", "110133.828000", "110133.828000", "110133.828000", "110133.843000", "110133.843000", "110133.843000", "110133.843000", "110133.843000", "110133.843000", "110133.859000", "110133.859000", "110133.859000", "110133.859000", "110213.812000", "110213.812000", "110213.828000", "110213.828000", "110213.828000", "110213.828000", "110213.828000", "110213.828000", "110213.828000", "110213.843000", "110213.843000", "110213.843000", "110213.843000", "110213.843000", "110213.843000", "110213.859000", "110213.859000", "110213.859000", "110213.859000", "110213.859000", "110253.812000", "110253.812000", "110253.812000", "110253.812000", "110253.812000", "110253.828000", "110253.828000", "110253.828000", "110253.828000", "110253.828000", "110253.828000", "110253.828000", "110253.828000", "110253.843000", "110253.843000", "110253.843000", "110253.843000", "110253.843000", "110253.843000", "110253.843000", "110333.812000", "110333.812000", "110333.812000", "110333.812000", "110333.812000", "110333.828000", "110333.828000", "110333.828000", "110333.828000", "110333.828000", "110333.828000", "110333.828000", "110333.828000", "110333.843000", "110333.843000", "110333.843000", "110333.843000", "110333.843000", "110333.843000", "110333.843000", "110413.812000", "110413.812000", "110413.812000", "110413.812000", "110413.812000", "110413.828000", "110413.828000", "110413.828000", "110413.828000", "110413.828000", "110413.828000", "110413.828000", "110413.843000", "110413.843000", "110413.843000", "110413.843000", "110413.843000", "110413.843000", "110413.843000", "110413.843000", "110453.812000", "110453.812000", "110453.812000", "110453.828000", "110453.828000", "110453.828000", "110453.828000", "110453.828000", "110453.843000", "110453.843000", "110453.843000", "110453.843000", "110453.859000", "110453.859000", "110453.859000", "110453.859000", "110453.859000", "110453.859000", "110453.859000", "110453.875000", "110533.812000", "110533.812000", "110533.812000", "110533.812000", "110533.812000", "110533.828000", "110533.828000", "110533.828000", "110533.828000", "110533.828000", "110533.828000", "110533.828000", "110533.843000", "110533.843000", "110533.843000", "110533.843000", "110533.843000", "110533.843000", "110533.843000", "110533.859000", "110613.812000", "110613.812000", "110613.812000", "110613.812000", "110613.812000", "110613.828000", "110613.828000", "110613.828000", "110613.828000", "110613.843000", "110613.843000", "110613.843000", "110613.843000", "110613.843000", "110613.859000", "110613.859000", "110613.859000", "110613.859000", "110613.859000", "110613.859000", "110653.812000", "110653.984000", "110653.984000", "110653.984000", "110653.984000", "110653.984000", "110654.000000", "110654.000000", "110654.000000", "110654.000000", "110654.000000", "110654.062000", "110654.062000", "110654.062000", "110654.062000", "110654.062000", "110654.078000", "110654.078000", "110654.078000", "110654.078000", "110733.812000", "110733.812000", "110733.812000", "110733.812000", "110733.812000", "110733.828000", "110733.828000", "110733.828000", "110733.828000", "110733.828000", "110733.828000", "110733.828000", "110733.843000", "110733.843000", "110733.843000", "110733.843000", "110733.843000", "110733.843000", "110733.843000", "110733.859000", "110813.812000", "110813.812000", "110813.812000", "110813.812000", "110813.812000", "110813.828000", "110813.828000", "110813.828000", "110813.828000", "110813.828000", "110813.828000", "110813.828000", "110813.843000", "110813.843000", "110813.843000", "110813.843000", "110813.859000", "110813.859000", "110813.859000", "110813.859000", "110822.671000", "110822.671000", "110822.671000", "110822.687000", "110822.687000"],
