{
  "AcquisitionMatrixPE": 72,
  "AcquisitionNumber": 1,
  "AcquisitionTime": "10:33:7.912500",
  "BandwidthPerPixelPhaseEncode": 28.935,
  "BaseResolution": 72,
  "CoilString": "C:HEA;HEP",
  "ConversionSoftware": "dcm2niix",
  "ConversionSoftwareVersion": "v1.0.20190410  GCC6.3.0",
  "DerivedVendorReportedEchoSpacing": 0.000480003,
  "DeviceSerialNumber": "35149",
  "DwellTime": 2.9e-06,
  "EchoTime": 0.025,
  "EffectiveEchoSpacing": 0.000480003,
  "FlipAngle": 75,
  "ImageOrientationPatientDICOM": [0.996148, 0.0607261, 0.0632547, -0.00903856, 0.788647, -0.61478],
  "ImageType": [
    "ORIGINAL",
    "PRIMARY",
    "M",
    "ND",
    "MOSAIC"
],
  "ImagingFrequency": 123.254,
  "InPlanePhaseEncodingDirectionDICOM": "COL",
  "InstitutionAddress": "Street_StreetNo_Rehovot_91E162_District_IL_ZIP",
  "InstitutionName": "Weizmann",
  "InstitutionalDepartmentName": "Department",
  "MRAcquisitionType": "2D",
  "MagneticFieldStrength": 3,
  "Manufacturer": "Siemens",
  "ManufacturersModelName": "TrioTim",
  "Modality": "MR",
  "PartialFourier": 1,
  "PatientPosition": "HFS",
  "PercentPhaseFOV": 100,
  "PhaseEncodingDirection": "j-",
  "PhaseEncodingSteps": 72,
  "PhaseResolution": 1,
  "PixelBandwidth": 2395,
  "ProcedureStepDescription": "Weizmann_Sobel",
  "ProtocolName": "exp1_30_to_AC-PC",
  "PulseSequenceDetails": "%SiemensSeq%_ep2d_pace",
  "ReceiveCoilName": "HeadMatrix",
  "ReconMatrixPE": 72,
  "RepetitionTime": 2,
  "SAR": 0.117894,
  "ScanOptions": "FS",
  "ScanningSequence": "EP",
  "SequenceName": "_epfid2d1_72",
  "SequenceVariant": "SK",
  "SeriesDescription": "exp1_30_to_AC-PC",
  "SeriesNumber": 3,
  "ShimSetting": [2388, 9477, -5452, 828, 443, 79, -175, 268],
  "SliceThickness": 3.7,
  "SliceTiming": [0.9925, 0, 1.0525, 0.0575, 1.11, 0.1175, 1.1675, 0.175, 1.2275, 0.2325, 1.285, 0.2925, 1.345, 0.35, 1.4025, 0.4075, 1.46, 0.4675, 1.52, 0.525, 1.5775, 0.585, 1.6375, 0.6425, 1.695, 0.7, 1.7525, 0.76, 1.8125, 0.8175, 1.87, 0.8775, 1.9275, 0.935],
  "SoftwareVersions": "syngo_MR_B17",
  "SpacingBetweenSlices": 3.7,
  "StationName": "MRC35149",
  "TaskName": "bodyodor",
  "TotalReadoutTime": 0.0340802,
  "TxRefAmp": 282.609,
  "VendorReportedEchoSpacing": 0.00048,
  "dcmmeta_affine": [
    [-2.9884445667266846, -0.027115676552057266, 0.32270967960357666, 101.3958969116211],
    [-0.18217833340168, 2.365941286087036, -2.263807773590088, -43.7215461730957],
    [0.18976418673992157, 1.8443392515182495, 2.908785343170166, -119.2142333984375],
    [0.0, 0.0, 0.0, 1.0]
],
  "dcmmeta_reorient_transform": [
    [0.0, -1.0, 0.0, 71.0],
    [1.0, 0.0, 0.0, 0.0],
    [0.0, 0.0, 1.0, 0.0],
    [0.0, 0.0, 0.0, 1.0]
],
  "dcmmeta_shape": [72, 72, 34, 450],
  "dcmmeta_slice_dim": 2,
  "dcmmeta_version": 0.6,
  "global": {
    "const": {
      "AcquisitionMatrix": [72, 0, 0, 72],
      "AngioFlag": "N",
      "BitsAllocated": 16,
      "BitsStored": 12,
      "Columns": 432,
      "EchoNumbers": 1,
      "EchoTime": 25.0,
      "EchoTrainLength": 1,
      "FlipAngle": 75.0,
      "HighBit": 11,
      "ImageOrientationPatient": [0.99614817127204, 0.06072610975205, 0.06325472682543, -0.0090385588489, 0.78864705978501, -0.6147797325436],
      "ImagePositionPatient": [-632.50987379419, -582.92179084976, 309.55735501153],
      "ImageType": [
        "ORIGINAL",
        "PRIMARY",
        "M",
        "ND",
        "MOSAIC"
],
      "ImagedNucleus": "1H",
      "ImagingFrequency": 123.254475,
      "InPlanePhaseEncodingDirection": "COL",
      "MRAcquisitionType": "2D",
      "MagneticFieldStrength": 3.0,
      "Manufacturer": "SIEMENS",
      "ManufacturerModelName": "TrioTim",
      "Modality": "MR",
      "NumberOfAverages": 1.0,
      "NumberOfPhaseEncodingSteps": 72,
      "PercentPhaseFieldOfView": 100.0,
      "PercentSampling": 100.0,
      "PerformedProcedureStepStartTime": "101245.171000",
      "PhotometricInterpretation": "MONOCHROME2",
      "PixelBandwidth": 2395.0,
      "PixelRepresentation": 0,
      "PixelSpacing": [3.0, 3.0],
      "ProtocolName": "exp1_30_to_AC-PC",
      "RepetitionTime": 2000.0,
      "Rows": 432,
      "SAR": 0.11789350626332,
      "SamplesPerPixel": 1,
      "ScanOptions": "FS",
      "ScanningSequence": "EP",
      "SequenceName": "*epfid2d1_72",
      "SequenceVariant": "SK",
      "SeriesDescription": "exp1_30_to_AC-PC",
      "SeriesNumber": 3,
      "SeriesTime": "103402.796000",
      "SliceLocation": -58.127025027229,
      "SliceThickness": 3.7000000476837,
      "SmallestImagePixelValue": 0,
      "SoftwareVersions": "syngo MR B17",
      "SpacingBetweenSlices": 3.6999999699797,
      "SpecificCharacterSet": "ISO_IR 100",
      "StudyID": "1",
      "StudyTime": "101245.078000",
      "TransmitCoilName": "Body",
      "VariableFlipAngleFlag": "N",
      "WindowCenterWidthExplanation": "Algo1",
      "dBdt": 0.0},
    "slices": {}
  },
  "time": {
    "samples": {
      "AcquisitionNumber": [1, 2, 3, 4, 5, 6, 7, 8, 9, 10, 11, 12, 13, 14, 15, 16, 17, 18, 19, 20, 21, 22, 23, 24, 25, 26, 27, 28, 29, 30, 31, 32, 33, 34, 35, 36, 37, 38, 39, 40, 41, 42, 43, 44, 45, 46, 47, 48, 49, 50, 51, 52, 53, 54, 55, 56, 57, 58, 59, 60, 61, 62, 63, 64, 65, 66, 67, 68, 69, 70, 71, 72, 73, 74, 75, 76, 77, 78, 79, 80, 81, 82, 83, 84, 85, 86, 87, 88, 89, 90, 91, 92, 93, 94, 95, 96, 97, 98, 99, 100, 101, 102, 103, 104, 105, 106, 107, 108, 109, 110, 111, 112, 113, 114, 115, 116, 117, 118, 119, 120, 121, 122, 123, 124, 125, 126, 127, 128, 129, 130, 131, 132, 133, 134, 135, 136, 137, 138, 139, 140, 141, 142, 143, 144, 145, 146, 147, 148, 149, 150, 151, 152, 153, 154, 155, 156, 157, 158, 159, 160, 161, 162, 163, 164, 165, 166, 167, 168, 169, 170, 171, 172, 173, 174, 175, 176, 177, 178, 179, 180, 181, 182, 183, 184, 185, 186, 187, 188, 189, 190, 191, 192, 193, 194, 195, 196, 197, 198, 199, 200, 201, 202, 203, 204, 205, 206, 207, 208, 209, 210, 211, 212, 213, 214, 215, 216, 217, 218, 219, 220, 221, 222, 223, 224, 225, 226, 227, 228, 229, 230, 231, 232, 233, 234, 235, 236, 237, 238, 239, 240, 241, 242, 243, 244, 245, 246, 247, 248, 249, 250, 251, 252, 253, 254, 255, 256, 257, 258, 259, 260, 261, 262, 263, 264, 265, 266, 267, 268, 269, 270, 271, 272, 273, 274, 275, 276, 277, 278, 279, 280, 281, 282, 283, 284, 285, 286, 287, 288, 289, 290, 291, 292, 293, 294, 295, 296, 297, 298, 299, 300, 301, 302, 303, 304, 305, 306, 307, 308, 309, 310, 311, 312, 313, 314, 315, 316, 317, 318, 319, 320, 321, 322, 323, 324, 325, 326, 327, 328, 329, 330, 331, 332, 333, 334, 335, 336, 337, 338, 339, 340, 341, 342, 343, 344, 345, 346, 347, 348, 349, 350, 351, 352, 353, 354, 355, 356, 357, 358, 359, 360, 361, 362, 363, 364, 365, 366, 367, 368, 369, 370, 371, 372, 373, 374, 375, 376, 377, 378, 379, 380, 381, 382, 383, 384, 385, 386, 387, 388, 389, 390, 391, 392, 393, 394, 395, 396, 397, 398, 399, 400, 401, 402, 403, 404, 405, 406, 407, 408, 409, 410, 411, 412, 413, 414, 415, 416, 417, 418, 419, 420, 421, 422, 423, 424, 425, 426, 427, 428, 429, 430, 431, 432, 433, 434, 435, 436, 437, 438, 439, 440, 441, 442, 443, 444, 445, 446, 447, 448, 449, 450],
      "AcquisitionTime": ["103307.912500", "103309.922500", "103311.930000", "103313.937500", "103315.945000", "103317.952500", "103319.962500", "103321.970000", "103323.977500", "103325.985000", "103327.992500", "103330.002500", "103332.010000", "103334.017500", "103336.025000", "103338.035000", "103340.042500", "103342.050000", "103344.057500", "103346.065000", "103348.075000", "103350.082500", "103352.090000", "103354.097500", "103356.105000", "103358.115000", "103400.122500", "103402.130000", "103404.137500", "103406.145000", "103408.155000", "103410.162500", "103412.170000", "103414.177500", "103416.187500", "103418.195000", "103420.202500", "103422.210000", "103424.217500", "103426.227500", "103428.235000", "103430.242500", "103432.250000", "103434.257500", "103436.267500", "103438.275000", "103440.282500", "103442.290000", "103444.300000", "103446.307500", "103448.315000", "103450.322500", "103452.330000", "103454.340000", "103456.347500", "103458.355000", "103500.362500", "103502.370000", "103504.380000", "103506.387500", "103508.395000", "103510.402500", "103512.412500", "103514.420000", "103516.427500", "103518.435000", "103520.442500", "103522.452500", "103524.460000", "103526.467500", "103528.475000", "103530.482500", "103532.492500", "103534.500000", "103536.507500", "103538.515000", "103540.522500", "103542.532500", "103544.540000", "103546.547500", "103548.555000", "103550.565000", "103552.572500", "103554.580000", "103556.587500", "103558.595000", "103600.605000", "103602.612500", "103604.620000", "103606.627500", "103608.635000", "103610.645000", "103612.652500", "103614.660000", "103616.667500", "103618.677500", "103620.685000", "103622.692500", "103624.700000", "103626.707500", "103628.717500", "103630.725000", "103632.732500", "103634.740000", "103636.747500", "103638.757500", "103640.765000", "103642.772500", "103644.780000", "103646.790000", "103648.797500", "103650.805000", "103652.812500", "103654.820000", "103656.830000", "103658.837500", "103700.845000", "103702.852500", "103704.860000", "103706.870000", "103708.877500", "103710.885000", "103712.892500", "103714.900000", "103716.910000", "103718.917500", "103720.925000", "103722.932500", "103724.942500", "103726.950000", "103728.957500", "103730.965000", "103732.972500", "103734.982500", "103736.990000", "103738.997500", "103741.005000", "103743.012500", "103745.022500", "103747.030000", "103749.037500", "103751.045000", "103753.055000", "103755.062500", "103757.070000", "103759.077500", "103801.085000", "103803.095000", "103805.102500", "103807.110000", "103809.117500", "103811.125000", "103813.135000", "103815.142500", "103817.150000", "103819.157500", "103821.167500", "103823.175000", "103825.182500", "103827.190000", "103829.197500", "103831.207500", "103833.215000", "103835.222500", "103837.230000", "103839.237500", "103841.247500", "103843.255000", "103845.262500", "103847.270000", "103849.277500", "103851.287500", "103853.295000", "103855.302500", "103857.310000", "103859.320000", "103901.327500", "103903.335000", "103905.342500", "103907.350000", "103909.360000", "103911.367500", "103913.375000", "103915.382500", "103917.390000", "103919.400000", "103921.407500", "103923.415000", "103925.422500", "103927.432500", "103929.440000", "103931.447500", "103933.455000", "103935.462500", "103937.472500", "103939.480000", "103941.487500", "103943.495000", "103945.502500", "103947.512500", "103949.520000", "103951.527500", "103953.535000", "103955.545000", "103957.552500", "103959.560000", "104001.567500", "104003.575000", "104005.585000", "104007.592500", "104009.600000", "104011.607500", "104013.615000", "104015.625000", "104017.632500", "104019.640000", "104021.647500", "104023.655000", "104025.665000", "104027.672500", "104029.680000", "104031.687500", "104033.697500", "104035.705000", "104037.712500", "104039.720000", "104041.727500", "104043.737500", "104045.745000", "104047.752500", "104049.760000", "104051.767500", "104053.777500", "104055.785000", "104057.792500", "104059.800000", "104101.810000", "104103.817500", "104105.825000", "104107.832500", "104109.840000", "104111.850000", "104113.857500", "104115.865000", "104117.872500", "104119.880000", "104121.890000", "104123.897500", "104125.905000", "104127.912500", "104129.922500", "104131.930000", "104133.937500", "104135.945000", "104137.952500", "104139.962500", "104141.970000", "104143.977500", "104145.985000", "104147.992500", "104150.002500", "104152.010000", "104154.017500", "104156.025000", "104158.035000", "104200.042500", "104202.050000", "104204.057500", "104206.065000", "104208.075000", "104210.082500", "104212.090000", "104214.097500", "104216.105000", "104218.115000", "104220.122500", "104222.130000", "104224.137500", "104226.145000", "104228.155000", "104230.162500", "104232.170000", "104234.177500", "104236.187500", "104238.195000", "104240.202500", "104242.210000", "104244.217500", "104246.227500", "104248.235000", "104250.242500", "104252.250000", "104254.257500", "104256.267500", "104258.275000", "104300.282500", "104302.290000", "104304.300000", "104306.307500", "104308.315000", "104310.322500", "104312.330000", "104314.340000", "104316.347500", "104318.355000", "104320.362500", "104322.370000", "104324.380000", "104326.387500", "104328.395000", "104330.402500", "104332.412500", "104334.420000", "104336.427500", "104338.435000", "104340.442500", "104342.452500", "104344.460000", "104346.467500", "104348.475000", "104350.482500", "104352.492500", "104354.500000", "104356.507500", "104358.515000", "104400.522500", "104402.532500", "104404.540000", "104406.547500", "104408.555000", "104410.565000", "104412.572500", "104414.580000", "104416.587500", "104418.595000", "104420.605000", "104422.612500", "104424.620000", "104426.627500", "104428.635000", "104430.645000", "104432.652500", "104434.660000", "104436.667500", "104438.677500", "104440.685000", "104442.692500", "104444.700000", "104446.707500", "104448.717500", "104450.725000", "104452.732500", "104454.740000", "104456.747500", "104458.757500", "104500.765000", "104502.772500", "104504.780000", "104506.790000", "104508.797500", "104510.805000", "104512.812500", "104514.820000", "104516.830000", "104518.837500", "104520.845000", "104522.852500", "104524.860000", "104526.870000", "104528.877500", "104530.885000", "104532.892500", "104534.900000", "104536.910000", "104538.917500", "104540.925000", "104542.932500", "104544.942500", "104546.950000", "104548.957500", "104550.965000", "104552.972500", "104554.982500", "104556.990000", "104558.997500", "104601.005000", "104603.012500", "104605.022500", "104607.030000", "104609.037500", "104611.045000", "104613.055000", "104615.062500", "104617.070000", "104619.077500", "104621.085000", "104623.095000", "104625.102500", "104627.110000", "104629.117500", "104631.125000", "104633.135000", "104635.142500", "104637.150000", "104639.157500", "104641.167500", "104643.175000", "104645.182500", "104647.190000", "104649.197500", "104651.207500", "104653.215000", "104655.222500", "104657.230000", "104659.237500", "104701.247500", "104703.255000", "104705.262500", "104707.270000", "104709.277500", "104711.287500", "104713.295000", "104715.302500", "104717.310000", "104719.320000", "104721.327500", "104723.335000", "104725.342500", "104727.350000", "104729.360000", "104731.367500", "104733.375000", "104735.382500", "104737.390000", "104739.400000", "104741.407500", "104743.415000", "104745.422500", "104747.432500", "104749.440000", "104751.447500", "104753.455000", "104755.462500", "104757.472500", "104759.480000", "104801.487500", "104803.495000", "104805.502500", "104807.512500", "104809.520000"],
      "ContentTime": ["103402.796000", "103402.812000", "103402.812000", "103402.812000", "103402.812000", "103402.812000", "103402.812000", "103402.828000", "103402.828000", "103402.828000", "103402.828000", "103402.828000", "103402.843000", "103402.843000", "103402.843000", "103402.843000", "103402.843000", "103402.843000", "103402.843000", "103402.859000", "103402.859000", "103402.859000", "103402.859000", "103402.859000", "103402.859000", "103402.859000", "103402.875000", "103442.796000", "103442.796000", "103442.796000", "103442.796000", "103442.796000", "103442.796000", "103442.812000", "103442.812000", "103442.812000", "103442.812000", "103442.812000", "103442.812000", "103442.812000", "103442.828000", "103442.828000", "103442.828000", "103442.828000", "103442.828000", "103442.828000", "103442.828000", "103522.796000", "103522.796000", "103522.796000", "103522.812000", "103522.812000", "103522.812000", "103522.812000", "103522.812000", "103522.812000", "103522.812000", "103522.828000", "103522.828000", "103522.828000", "103522.828000", "103522.828000", "103522.843000", "103522.843000", "103522.843000", "103522.843000", "103522.843000", "103602.796000", "103602.796000", "103602.796000", "103602.796000", "103602.796000", "103602.796000", "103602.812000", "103602.812000", "103602.812000", "103602.812000", "103602.812000", "103602.812000", "103602.812000", "103602.828000", "103602.828000", "103602.828000", "103602.828000", "103602.828000", "103602.828000", "103602.828000", "103642.796000", "103642.796000", "103642.796000", "103642.796000", "103642.796000", "103642.796000", "103642.812000", "103642.812000", "103642.812000", "103642.812000", "103642.812000", "103642.828000", "103642.828000", "103642.828000", "103642.828000", "103642.828000", "103642.828000", "103642.843000", "103642.843000", "103642.843000", "103722.796000", "103722.812000", "103722.812000", "103722.812000", "103722.812000", "103722.828000", "103722.828000", "103722.828000", "103722.828000", "103722.828000", "103722.843000", "103722.843000", "103722.843000", "103722.843000", "103722.843000", "103722.843000", "103722.843000", "103722.859000", "103722.859000", "103722.859000", "103802.796000", "103802.796000", "103802.796000", "103802.796000", "103802.796000", "103802.812000", "103802.812000", "103802.812000", "103802.812000", "103802.812000", "103802.812000", "103802.812000", "103802.812000", "103802.828000", "103802.828000", "103802.828000", "103802.828000", "103802.828000", "103802.828000", "103802.828000", "103822.796000", "103822.796000", "103822.796000", "103822.796000", "103822.796000", "103822.796000", "103822.812000", "103822.812000", "103822.812000", "103822.812000", "103902.796000", "103902.796000", "103902.796000", "103902.796000", "103902.796000", "103902.812000", "103902.812000", "103902.812000", "103902.828000", "103902.828000", "103902.828000", "103902.828000", "103902.828000", "103902.828000", "103902.828000", "103902.843000", "103902.843000", "103902.843000", "103902.843000", "103902.843000", "103942.796000", "103942.796000", "103942.796000", "103942.796000", "103942.796000", "103942.812000", "103942.812000", "103942.812000", "103942.812000", "103942.812000", "103942.812000", "103942.812000", "103942.812000", "103942.828000", "103942.828000", "103942.828000", "103942.843000", "103942.843000", "103942.843000", "103942.843000", "104022.796000", "104022.796000", "104022.796000", "104022.796000", "104022.796000", "104022.812000", "104022.812000", "104022.812000", "104022.812000", "104022.812000", "104022.828000", "104022.828000", "104022.828000", "104022.828000", "104022.828000", "104022.828000", "104022.828000", "104022.843000", "104022.843000", "104022.843000", "104102.796000", "104102.796000", "104102.796000", "104102.796000", "104102.796000", "104102.812000", "104102.812000", "104102.812000", "104102.812000", "104102.812000", "104102.828000", "104102.828000", "104102.828000", "104102.828000", "104102.843000", "104102.843000", "104102.843000", "104102.843000", "104102.843000", "104102.843000", "104142.796000", "104142.796000", "104142.796000", "104142.796000", "104142.796000", "104142.812000", "104142.812000", "104142.812000", "104142.812000", "104142.828000", "104142.828000", "104142.828000", "104142.828000", "104142.843000", "104142.843000", "104142.843000", "104142.843000", "104142.843000", "104142.843000", "104142.843000", "104222.796000", "104222.796000", "104222.796000", "104222.796000", "104222.796000", "104222.812000", "104222.812000", "104222.812000", "104222.812000", "104222.812000", "104222.812000", "104222.812000", "104222.828000", "104222.828000", "104222.828000", "104222.828000", "104222.828000", "104222.828000", "104222.828000", "104222.828000", "104302.796000", "104302.796000", "104302.796000", "104302.796000", "104302.796000", "104302.812000", "104302.812000", "104302.812000", "104302.812000", "104302.812000", "104302.812000", "104302.828000", "104302.828000", "104302.828000", "104302.828000", "104302.828000", "104302.828000", "104302.843000", "104302.843000", "104302.843000", "104342.796000", "104342.796000", "104342.812000", "104342.812000", "104342.812000", "104342.812000", "104342.812000", "104342.812000", "104342.812000", "104342.828000", "104342.828000", "104342.828000", "104342.828000", "104342.828000", "104342.828000", "104342.828000", "104342.843000", "104342.843000", "104342.843000", "104342.843000", "104422.796000", "104422.796000", "104422.796000", "104422.796000", "104422.796000", "104422.812000", "104422.812000", "104422.812000", "104422.812000", "104422.812000", "104422.812000", "104422.812000", "104422.828000", "104422.828000", "104422.828000", "104422.828000", "104422.828000", "104422.828000", "104422.828000", "104422.843000", "104502.796000", "104502.796000", "104502.796000", "104502.796000", "104502.796000", "104502.812000", "104502.812000", "104502.812000", "104502.812000", "104502.812000", "104502.812000", "104502.812000", "104502.828000", "104502.828000", "104502.828000", "104502.828000", "104502.828000", "104502.828000", "104502.828000", "104502.843000", "104542.796000", "104542.796000", "104542.796000", "104542.796000", "104542.796000", "104542.812000", "104542.812000", "104542.812000", "104542.812000", "104542.812000", "104542.812000", "104542.812000", "104542.828000", "104542.828000", "104542.828000", "104542.828000", "104542.828000", "104542.828000", "104542.828000", "104542.828000", "104622.796000", "104622.796000", "104622.796000", "104622.796000", "104622.796000", "104622.812000", "104622.812000", "104622.812000", "104622.812000", "104622.812000", "104622.812000", "104622.812000", "104622.828000", "104622.828000", "104622.828000", "104622.828000", "104622.828000", "104622.828000", "104622.828000", "104622.843000", "104702.796000", "104702.796000", "104702.796000", "104702.796000", "104702.796000", "104702.812000", "104702.812000", "104702.812000", "104702.812000", "104702.828000", "104702.828000", "104702.828000", "104702.828000", "104702.828000", "104702.828000", "104702.828000", "104702.843000", "104702.843000", "104702.843000", "104702.843000", "104742.796000", "104742.796000", "104742.796000", "104742.812000", "104742.812000", "104742.812000", "104742.812000", "104742.828000", "104742.828000", "104742.828000", "104742.828000", "104742.828000", "104742.828000", "104742.828000", "104742.843000", "104742.843000", "104742.843000", "104742.843000", "104742.843000", "104742.859000", "104807.281000", "104807.281000", "104807.281000", "104807.281000", "104807.281000", "104807.281000", "104807.296000", "104807.296000", "104807.296000", "104807.296000", "104807.312000", "104807.312000", "104807.312000"],
