{
  "AcquisitionMatrixPE": 72,
  "AcquisitionNumber": 1,
  "AcquisitionTime": "10:15:40.770000",
  "BandwidthPerPixelPhaseEncode": 28.935,
  "BaseResolution": 72,
  "CoilString": "C:HEA;HEP",
  "ConversionSoftware": "dcm2niix",
  "ConversionSoftwareVersion": "v1.0.20190410  GCC6.3.0",
  "DerivedVendorReportedEchoSpacing": 0.000480003,
  "DeviceSerialNumber": "35149",
  "DwellTime": 2.9e-06,
  "EchoTime": 0.025,
  "EffectiveEchoSpacing": 0.000480003,
  "FlipAngle": 75,
  "ImageOrientationPatientDICOM": [0.999955, -0.00866042, -0.00375037, 0.00637888, 0.913085, -0.40772],
  "ImageType": [
    "ORIGINAL",
    "PRIMARY",
    "M",
    "ND",
    "MOSAIC"
],
  "ImagingFrequency": 123.255,
  "InPlanePhaseEncodingDirectionDICOM": "COL",
  "InstitutionAddress": "Street_StreetNo_Rehovot_91E162_District_IL_ZIP",
  "InstitutionName": "Weizmann",
  "InstitutionalDepartmentName": "Department",
  "MRAcquisitionType": "2D",
  "MagneticFieldStrength": 3,
  "Manufacturer": "Siemens",
  "ManufacturersModelName": "TrioTim",
  "Modality": "MR",
  "PartialFourier": 1,
  "PatientPosition": "HFS",
  "PercentPhaseFOV": 100,
  "PhaseEncodingDirection": "j-",
  "PhaseEncodingSteps": 72,
  "PhaseResolution": 1,
  "PixelBandwidth": 2395,
  "ProcedureStepDescription": "Weizmann_Sobel",
  "ProtocolName": "exp1_30_to_AC-PC",
  "PulseSequenceDetails": "%SiemensSeq%_ep2d_pace",
  "ReceiveCoilName": "HeadMatrix",
  "ReconMatrixPE": 72,
  "RepetitionTime": 2,
  "SAR": 0.149306,
  "ScanOptions": "FS",
  "ScanningSequence": "EP",
  "SequenceName": "_epfid2d1_72",
  "SequenceVariant": "SK",
  "SeriesDescription": "exp1_30_to_AC-PC",
  "SeriesNumber": 3,
  "ShimSetting": [2320, 9363, -5370, 671, 119, -578, -282, 23],
  "SliceThickness": 3.7,
  "SliceTiming": [0.995, 0, 1.0525, 0.0575, 1.11, 0.1175, 1.17, 0.175, 1.2275, 0.235, 1.285, 0.2925, 1.345, 0.35, 1.4025, 0.41, 1.4625, 0.4675, 1.52, 0.525, 1.5775, 0.585, 1.6375, 0.6425, 1.695, 0.7025, 1.7525, 0.76, 1.8125, 0.8175, 1.87, 0.8775, 1.93, 0.935],
  "SoftwareVersions": "syngo_MR_B17",
  "SpacingBetweenSlices": 3.7,
  "StationName": "MRC35149",
  "TaskName": "bodyodor",
  "TotalReadoutTime": 0.0340802,
  "TxRefAmp": 311.617,
  "VendorReportedEchoSpacing": 0.00048,
  "dcmmeta_affine": [
    [-2.999866485595703, 0.01913662999868393, -0.025735100731253624, 109.64700317382812],
    [0.025981254875659943, 2.7392537593841553, -1.5084093809127808, -53.817298889160156],
    [-0.011251108720898628, 1.2231608629226685, 3.378466844558716, -56.04573059082031],
    [0.0, 0.0, 0.0, 1.0]
],
  "dcmmeta_reorient_transform": [
    [0.0, -1.0, 0.0, 71.0],
    [1.0, 0.0, 0.0, 0.0],
    [0.0, 0.0, 1.0, 0.0],
    [0.0, 0.0, 0.0, 1.0]
],
  "dcmmeta_shape": [72, 72, 34, 450],
  "dcmmeta_slice_dim": 2,
  "dcmmeta_version": 0.6,
  "global": {
    "const": {
      "AcquisitionMatrix": [72, 0, 0, 72],
      "AngioFlag": "N",
      "BitsAllocated": 16,
      "BitsStored": 12,
      "Columns": 432,
      "EchoNumbers": 1,
      "EchoTime": 25.0,
      "EchoTrainLength": 1,
      "FlipAngle": 75.0,
      "HighBit": 11,
      "ImageOrientationPatient": [0.99995546495188, -0.008660418077, -0.0037503695276, 0.00637887662192, 0.91308459180959, -0.407720293992],
      "ImagePositionPatient": [-654.42624662443, -629.05877360583, 252.99284847359],
      "ImageType": [
        "ORIGINAL",
        "PRIMARY",
        "M",
        "ND",
        "MOSAIC"
],
      "ImagedNucleus": "1H",
      "ImagingFrequency": 123.254566,
      "InPlanePhaseEncodingDirection": "COL",
      "MRAcquisitionType": "2D",
      "MagneticFieldStrength": 3.0,
      "Manufacturer": "SIEMENS",
      "ManufacturerModelName": "TrioTim",
      "Modality": "MR",
      "NumberOfAverages": 1.0,
      "NumberOfPhaseEncodingSteps": 72,
      "PercentPhaseFieldOfView": 100.0,
      "PercentSampling": 100.0,
      "PerformedProcedureStepStartTime": "100009.812000",
      "PhotometricInterpretation": "MONOCHROME2",
      "PixelBandwidth": 2395.0,
      "PixelRepresentation": 0,
      "PixelSpacing": [3.0, 3.0],
      "ProtocolName": "exp1_30_to_AC-PC",
      "RepetitionTime": 2000.0,
      "Rows": 432,
      "SAR": 0.14930608639233,
      "SamplesPerPixel": 1,
      "ScanOptions": "FS",
      "ScanningSequence": "EP",
      "SequenceName": "*epfid2d1_72",
      "SequenceVariant": "SK",
      "SeriesDescription": "exp1_30_to_AC-PC",
      "SeriesNumber": 3,
      "SeriesTime": "101630.625000",
      "SliceLocation": -29.99781422004,
      "SliceThickness": 3.7000000476837,
      "SmallestImagePixelValue": 0,
      "SoftwareVersions": "syngo MR B17",
      "SpacingBetweenSlices": 3.6999999571291,
      "SpecificCharacterSet": "ISO_IR 100",
      "StudyID": "1",
      "StudyTime": "100009.750000",
      "TransmitCoilName": "Body",
      "VariableFlipAngleFlag": "N",
      "WindowCenterWidthExplanation": "Algo1",
      "dBdt": 0.0},
    "slices": {}
  },
  "time": {
    "samples": {
      "AcquisitionNumber": [1, 2, 3, 4, 5, 6, 7, 8, 9, 10, 11, 12, 13, 14, 15, 16, 17, 18, 19, 20, 21, 22, 23, 24, 25, 26, 27, 28, 29, 30, 31, 32, 33, 34, 35, 36, 37, 38, 39, 40, 41, 42, 43, 44, 45, 46, 47, 48, 49, 50, 51, 52, 53, 54, 55, 56, 57, 58, 59, 60, 61, 62, 63, 64, 65, 66, 67, 68, 69, 70, 71, 72, 73, 74, 75, 76, 77, 78, 79, 80, 81, 82, 83, 84, 85, 86, 87, 88, 89, 90, 91, 92, 93, 94, 95, 96, 97, 98, 99, 100, 101, 102, 103, 104, 105, 106, 107, 108, 109, 110, 111, 112, 113, 114, 115, 116, 117, 118, 119, 120, 121, 122, 123, 124, 125, 126, 127, 128, 129, 130, 131, 132, 133, 134, 135, 136, 137, 138, 139, 140, 141, 142, 143, 144, 145, 146, 147, 148, 149, 150, 151, 152, 153, 154, 155, 156, 157, 158, 159, 160, 161, 162, 163, 164, 165, 166, 167, 168, 169, 170, 171, 172, 173, 174, 175, 176, 177, 178, 179, 180, 181, 182, 183, 184, 185, 186, 187, 188, 189, 190, 191, 192, 193, 194, 195, 196, 197, 198, 199, 200, 201, 202, 203, 204, 205, 206, 207, 208, 209, 210, 211, 212, 213, 214, 215, 216, 217, 218, 219, 220, 221, 222, 223, 224, 225, 226, 227, 228, 229, 230, 231, 232, 233, 234, 235, 236, 237, 238, 239, 240, 241, 242, 243, 244, 245, 246, 247, 248, 249, 250, 251, 252, 253, 254, 255, 256, 257, 258, 259, 260, 261, 262, 263, 264, 265, 266, 267, 268, 269, 270, 271, 272, 273, 274, 275, 276, 277, 278, 279, 280, 281, 282, 283, 284, 285, 286, 287, 288, 289, 290, 291, 292, 293, 294, 295, 296, 297, 298, 299, 300, 301, 302, 303, 304, 305, 306, 307, 308, 309, 310, 311, 312, 313, 314, 315, 316, 317, 318, 319, 320, 321, 322, 323, 324, 325, 326, 327, 328, 329, 330, 331, 332, 333, 334, 335, 336, 337, 338, 339, 340, 341, 342, 343, 344, 345, 346, 347, 348, 349, 350, 351, 352, 353, 354, 355, 356, 357, 358, 359, 360, 361, 362, 363, 364, 365, 366, 367, 368, 369, 370, 371, 372, 373, 374, 375, 376, 377, 378, 379, 380, 381, 382, 383, 384, 385, 386, 387, 388, 389, 390, 391, 392, 393, 394, 395, 396, 397, 398, 399, 400, 401, 402, 403, 404, 405, 406, 407, 408, 409, 410, 411, 412, 413, 414, 415, 416, 417, 418, 419, 420, 421, 422, 423, 424, 425, 426, 427, 428, 429, 430, 431, 432, 433, 434, 435, 436, 437, 438, 439, 440, 441, 442, 443, 444, 445, 446, 447, 448, 449, 450],
      "AcquisitionTime": ["101540.770000", "101542.777500", "101544.785000", "101546.792500", "101548.800000", "101550.810000", "101552.817500", "101554.825000", "101556.832500", "101558.840000", "101600.850000", "101602.857500", "101604.865000", "101606.872500", "101608.880000", "101610.890000", "101612.897500", "101614.905000", "101616.912500", "101618.922500", "101620.930000", "101622.937500", "101624.945000", "101626.952500", "101628.962500", "101630.970000", "101632.977500", "101634.985000", "101636.992500", "101639.002500", "101641.010000", "101643.017500", "101645.025000", "101647.035000", "101649.042500", "101651.050000", "101653.057500", "101655.065000", "101657.075000", "101659.082500", "101701.090000", "101703.097500", "101705.105000", "101707.115000", "101709.122500", "101711.130000", "101713.137500", "101715.147500", "101717.155000", "101719.162500", "101721.170000", "101723.177500", "101725.187500", "101727.195000", "101729.202500", "101731.210000", "101733.217500", "101735.227500", "101737.235000", "101739.242500", "101741.250000", "101743.257500", "101745.267500", "101747.275000", "101749.282500", "101751.290000", "101753.300000", "101755.307500", "101757.315000", "101759.322500", "101801.330000", "101803.340000", "101805.347500", "101807.355000", "101809.362500", "101811.370000", "101813.380000", "101815.387500", "101817.395000", "101819.402500", "101821.412500", "101823.420000", "101825.427500", "101827.435000", "101829.442500", "101831.452500", "101833.460000", "101835.467500", "101837.475000", "101839.482500", "101841.492500", "101843.500000", "101845.507500", "101847.515000", "101849.525000", "101851.532500", "101853.540000", "101855.547500", "101857.555000", "101859.565000", "101901.572500", "101903.580000", "101905.587500", "101907.595000", "101909.605000", "101911.612500", "101913.620000", "101915.627500", "101917.635000", "101919.645000", "101921.652500", "101923.660000", "101925.667500", "101927.677500", "101929.685000", "101931.692500", "101933.700000", "101935.707500", "101937.717500", "101939.725000", "101941.732500", "101943.740000", "101945.747500", "101947.757500", "101949.765000", "101951.772500", "101953.780000", "101955.790000", "101957.797500", "101959.805000", "102001.812500", "102003.820000", "102005.830000", "102007.837500", "102009.845000", "102011.852500", "102013.860000", "102015.870000", "102017.877500", "102019.885000", "102021.892500", "102023.902500", "102025.910000", "102027.917500", "102029.925000", "102031.932500", "102033.942500", "102035.950000", "102037.957500", "102039.965000", "102041.972500", "102043.982500", "102045.990000", "102047.997500", "102050.005000", "102052.012500", "102054.022500", "102056.030000", "102058.037500", "102100.045000", "102102.055000", "102104.062500", "102106.070000", "102108.077500", "102110.085000", "102112.095000", "102114.102500", "102116.110000", "102118.117500", "102120.125000", "102122.135000", "102124.142500", "102126.150000", "102128.157500", "102130.167500", "102132.175000", "102134.182500", "102136.190000", "102138.197500", "102140.207500", "102142.215000", "102144.222500", "102146.230000", "102148.237500", "102150.247500", "102152.255000", "102154.262500", "102156.270000", "102158.280000", "102200.287500", "102202.295000", "102204.302500", "102206.310000", "102208.320000", "102210.327500", "102212.335000", "102214.342500", "102216.350000", "102218.360000", "102220.367500", "102222.375000", "102224.382500", "102226.392500", "102228.400000", "102230.407500", "102232.415000", "102234.422500", "102236.432500", "102238.440000", "102240.447500", "102242.455000", "102244.462500", "102246.472500", "102248.480000", "102250.487500", "102252.495000", "102254.502500", "102256.512500", "102258.520000", "102300.527500", "102302.535000", "102304.545000", "102306.552500", "102308.560000", "102310.567500", "102312.575000", "102314.585000", "102316.592500", "102318.600000", "102320.607500", "102322.615000", "102324.625000", "102326.632500", "102328.640000", "102330.647500", "102332.657500", "102334.665000", "102336.672500", "102338.680000", "102340.687500", "102342.697500", "102344.705000", "102346.712500", "102348.720000", "102350.727500", "102352.737500", "102354.745000", "102356.752500", "102358.760000", "102400.770000", "102402.777500", "102404.785000", "102406.792500", "102408.800000", "102410.810000", "102412.817500", "102414.825000", "102416.832500", "102418.840000", "102420.850000", "102422.857500", "102424.865000", "102426.872500", "102428.880000", "102430.890000", "102432.897500", "102434.905000", "102436.912500", "102438.922500", "102440.930000", "102442.937500", "102444.945000", "102446.952500", "102448.962500", "102450.970000", "102452.977500", "102454.985000", "102456.992500", "102459.002500", "102501.010000", "102503.017500", "102505.025000", "102507.035000", "102509.042500", "102511.050000", "102513.057500", "102515.065000", "102517.075000", "102519.082500", "102521.090000", "102523.097500", "102525.105000", "102527.115000", "102529.122500", "102531.130000", "102533.137500", "102535.147500", "102537.155000", "102539.162500", "102541.170000", "102543.177500", "102545.187500", "102547.195000", "102549.202500", "102551.210000", "102553.217500", "102555.227500", "102557.235000", "102559.242500", "102601.250000", "102603.257500", "102605.267500", "102607.275000", "102609.282500", "102611.290000", "102613.300000", "102615.307500", "102617.315000", "102619.322500", "102621.330000", "102623.340000", "102625.347500", "102627.355000", "102629.362500", "102631.370000", "102633.380000", "102635.387500", "102637.395000", "102639.402500", "102641.412500", "102643.420000", "102645.427500", "102647.435000", "102649.442500", "102651.452500", "102653.460000", "102655.467500", "102657.475000", "102659.482500", "102701.492500", "102703.500000", "102705.507500", "102707.515000", "102709.525000", "102711.532500", "102713.540000", "102715.547500", "102717.555000", "102719.565000", "102721.572500", "102723.580000", "102725.587500", "102727.595000", "102729.605000", "102731.612500", "102733.620000", "102735.627500", "102737.635000", "102739.645000", "102741.652500", "102743.660000", "102745.667500", "102747.677500", "102749.685000", "102751.692500", "102753.700000", "102755.707500", "102757.717500", "102759.725000", "102801.732500", "102803.740000", "102805.747500", "102807.757500", "102809.765000", "102811.772500", "102813.780000", "102815.790000", "102817.797500", "102819.805000", "102821.812500", "102823.820000", "102825.830000", "102827.837500", "102829.845000", "102831.852500", "102833.860000", "102835.870000", "102837.877500", "102839.885000", "102841.892500", "102843.902500", "102845.910000", "102847.917500", "102849.925000", "102851.932500", "102853.942500", "102855.950000", "102857.957500", "102859.965000", "102901.972500", "102903.982500", "102905.990000", "102907.997500", "102910.005000", "102912.012500", "102914.022500", "102916.030000", "102918.037500", "102920.045000", "102922.055000", "102924.062500", "102926.070000", "102928.077500", "102930.085000", "102932.095000", "102934.102500", "102936.110000", "102938.117500", "102940.125000", "102942.135000", "102944.142500", "102946.150000", "102948.157500", "102950.167500", "102952.175000", "102954.182500", "102956.190000", "102958.197500", "103000.207500", "103002.215000", "103004.222500", "103006.230000", "103008.237500", "103010.247500", "103012.255000", "103014.262500", "103016.270000", "103018.280000", "103020.287500", "103022.295000", "103024.302500", "103026.310000", "103028.320000", "103030.327500", "103032.335000", "103034.342500", "103036.350000", "103038.360000", "103040.367500", "103042.375000"],
      "ContentTime": ["101630.640000", "101630.640000", "101630.640000", "101630.640000", "101630.640000", "101630.656000", "101630.656000", "101630.656000", "101630.656000", "101630.656000", "101630.656000", "101630.656000", "101630.656000", "101630.671000", "101630.671000", "101630.671000", "101630.671000", "101630.671000", "101630.687000", "101630.687000", "101630.687000", "101630.687000", "101630.687000", "101630.687000", "101630.687000", "101710.625000", "101710.625000", "101710.625000", "101710.640000", "101710.640000", "101710.640000", "101710.656000", "101710.656000", "101710.656000", "101710.656000", "101710.656000", "101710.656000", "101710.656000", "101710.671000", "101710.671000", "101710.671000", "101710.671000", "101710.671000", "101710.687000", "101710.687000", "101750.625000", "101750.625000", "101750.640000", "101750.640000", "101750.640000", "101750.640000", "101750.640000", "101750.640000", "101750.656000", "101750.656000", "101750.656000", "101750.656000", "101750.656000", "101750.671000", "101750.671000", "101750.671000", "101750.671000", "101750.687000", "101750.687000", "101750.687000", "101810.625000", "101810.625000", "101810.625000", "101810.640000", "101810.640000", "101810.640000", "101810.640000", "101810.640000", "101810.640000", "101810.640000", "101850.625000", "101850.625000", "101850.625000", "101850.640000", "101850.640000", "101850.640000", "101850.640000", "101850.640000", "101850.640000", "101850.640000", "101850.656000", "101850.656000", "101850.656000", "101850.656000", "101850.671000", "101850.671000", "101850.671000", "101850.671000", "101850.687000", "101850.687000", "101930.625000", "101930.625000", "101930.625000", "101930.640000", "101930.640000", "101930.640000", "101930.640000", "101930.640000", "101930.640000", "101930.640000", "101930.656000", "101930.656000", "101930.656000", "101930.656000", "101930.656000", "101930.656000", "101930.656000", "101930.671000", "101930.671000", "101930.671000", "102010.625000", "102010.625000", "102010.625000", "102010.640000", "102010.640000", "102010.640000", "102010.640000", "102010.640000", "102010.640000", "102010.640000", "102010.656000", "102010.656000", "102010.656000", "102010.656000", "102010.656000", "102010.656000", "102010.656000", "102010.671000", "102010.671000", "102010.671000", "102050.625000", "102050.625000", "102050.625000", "102050.640000", "102050.640000", "102050.640000", "102050.640000", "102050.640000", "102050.640000", "102050.656000", "102050.656000", "102050.656000", "102050.656000", "102050.656000", "102050.656000", "102050.671000", "102050.671000", "102050.671000", "102050.671000", "102050.671000", "102130.625000", "102130.625000", "102130.625000", "102130.640000", "102130.640000", "102130.640000", "102130.640000", "102130.640000", "102130.640000", "102130.640000", "102130.656000", "102130.656000", "102130.656000", "102130.656000", "102130.656000", "102130.656000", "102130.656000", "102130.671000", "102130.671000", "102130.671000", "102210.625000", "102210.640000", "102210.640000", "102210.640000", "102210.640000", "102210.640000", "102210.640000", "102210.640000", "102210.656000", "102210.656000", "102210.656000", "102210.656000", "102210.656000", "102210.656000", "102210.656000", "102210.656000", "102210.671000", "102210.671000", "102210.671000", "102210.671000", "102250.625000", "102250.625000", "102250.625000", "102250.640000", "102250.640000", "102250.640000", "102250.640000", "102250.640000", "102250.656000", "102250.656000", "102250.656000", "102250.656000", "102250.656000", "102250.656000", "102250.656000", "102250.671000", "102250.671000", "102250.671000", "102250.671000", "102250.687000", "102330.625000", "102330.625000", "102330.625000", "102330.640000", "102330.640000", "102330.640000", "102330.640000", "102330.640000", "102330.640000", "102330.640000", "102330.656000", "102330.656000", "102330.656000", "102330.656000", "102330.656000", "102330.656000", "102330.656000", "102330.671000", "102330.671000", "102330.671000", "102410.625000", "102410.625000", "102410.625000", "102410.640000", "102410.640000", "102410.640000", "102410.640000", "102410.640000", "102410.656000", "102410.656000", "102410.656000", "102410.656000", "102410.656000", "102410.656000", "102410.656000", "102410.671000", "102410.671000", "102410.671000", "102410.671000", "102410.671000", "102450.625000", "102450.625000", "102450.625000", "102450.640000", "102450.640000", "102450.640000", "102450.640000", "102450.640000", "102450.640000", "102450.640000", "102450.656000", "102450.656000", "102450.656000", "102450.656000", "102450.656000", "102450.656000", "102450.656000", "102450.671000", "102450.671000", "102450.671000", "102530.625000", "102530.625000", "102530.625000", "102530.640000", "102530.640000", "102530.640000", "102530.640000", "102530.640000", "102530.656000", "102530.656000", "102530.656000", "102530.656000", "102530.671000", "102530.671000", "102530.671000", "102530.671000", "102530.671000", "102530.671000", "102530.671000", "102530.671000", "102610.625000", "102610.625000", "102610.625000", "102610.640000", "102610.640000", "102610.656000", "102610.656000", "102610.656000", "102610.656000", "102610.656000", "102610.656000", "102610.656000", "102610.671000", "102610.671000", "102610.671000", "102610.671000", "102610.671000", "102610.671000", "102610.671000", "102610.687000", "102650.625000", "102650.625000", "102650.625000", "102650.640000", "102650.640000", "102650.640000", "102650.640000", "102650.640000", "102650.640000", "102650.640000", "102650.656000", "102650.656000", "102650.656000", "102650.656000", "102650.656000", "102650.656000", "102650.656000", "102650.671000", "102650.671000", "102650.671000", "102730.625000", "102730.625000", "102730.625000", "102730.640000", "102730.640000", "102730.640000", "102730.640000", "102730.640000", "102730.656000", "102730.656000", "102730.656000", "102730.656000", "102730.656000", "102730.671000", "102730.671000", "102730.671000", "102730.671000", "102730.671000", "102730.671000", "102730.671000", "102810.625000", "102810.625000", "102810.640000", "102810.640000", "102810.656000", "102810.656000", "102810.656000", "102810.656000", "102810.656000", "102810.656000", "102810.671000", "102810.671000", "102810.671000", "102810.671000", "102810.671000", "102810.671000", "102810.671000", "102810.687000", "102810.687000", "102810.687000", "102850.625000", "102850.625000", "102850.640000", "102850.640000", "102850.640000", "102850.640000", "102850.640000", "102850.640000", "102850.640000", "102850.656000", "102850.656000", "102850.656000", "102850.656000", "102850.656000", "102850.671000", "102850.671000", "102850.671000", "102850.687000", "102850.687000", "102850.687000", "102930.625000", "102930.625000", "102930.640000", "102930.640000", "102930.640000", "102930.640000", "102930.640000", "102930.640000", "102930.640000", "102930.656000", "102930.656000", "102930.656000", "102930.656000", "102930.656000", "102930.656000", "102930.656000", "102930.671000", "102930.671000", "102930.671000", "102930.671000", "103010.625000", "103010.625000", "103010.640000", "103010.640000", "103010.656000", "103010.656000", "103010.656000", "103010.656000", "103010.656000", "103010.656000", "103010.656000", "103010.671000", "103010.671000", "103010.671000", "103010.671000", "103010.671000", "103010.687000", "103010.687000", "103010.687000", "103010.703000", "103040.312000", "103040.328000", "103040.328000", "103040.328000", "103040.328000", "103040.328000", "103040.343000", "103040.343000", "103040.343000", "103040.343000", "103040.343000", "103040.343000", "103040.343000", "103040.359000", "103040.359000"],
