{
  "AcquisitionMatrixPE": 72,
  "AcquisitionNumber": 1,
  "AcquisitionTime": "13:48:5.947500",
  "BandwidthPerPixelPhaseEncode": 28.935,
  "BaseResolution": 72,
  "CoilString": "C:HEA;HEP",
  "ConversionSoftware": "dcm2niix",
  "ConversionSoftwareVersion": "v1.0.20190410  GCC6.3.0",
  "DerivedVendorReportedEchoSpacing": 0.000480003,
  "DeviceSerialNumber": "35149",
  "DwellTime": 2.9e-06,
  "EchoTime": 0.025,
  "EffectiveEchoSpacing": 0.000480003,
  "FlipAngle": 75,
  "ImageOrientationPatientDICOM": [0.998845, 0.0100495, 0.046995, 0.015952, 0.853114, -0.521481],
  "ImageType": [
    "ORIGINAL",
    "PRIMARY",
    "M",
    "ND",
    "MOSAIC"
],
  "ImagingFrequency": 123.255,
  "InPlanePhaseEncodingDirectionDICOM": "COL",
  "InstitutionAddress": "Street_StreetNo_Rehovot_91E162_District_IL_ZIP",
  "InstitutionName": "Weizmann",
  "InstitutionalDepartmentName": "Department",
  "MRAcquisitionType": "2D",
  "MagneticFieldStrength": 3,
  "Manufacturer": "Siemens",
  "ManufacturersModelName": "TrioTim",
  "Modality": "MR",
  "PartialFourier": 1,
  "PatientPosition": "HFS",
  "PercentPhaseFOV": 100,
  "PhaseEncodingDirection": "j-",
  "PhaseEncodingSteps": 72,
  "PhaseResolution": 1,
  "PixelBandwidth": 2395,
  "ProcedureStepDescription": "Weizmann_Sobel",
  "ProtocolName": "exp2_30_to_AC-PC",
  "PulseSequenceDetails": "%SiemensSeq%_ep2d_pace",
  "ReceiveCoilName": "HeadMatrix",
  "ReconMatrixPE": 72,
  "RepetitionTime": 2,
  "SAR": 0.123906,
  "ScanOptions": "FS",
  "ScanningSequence": "EP",
  "SequenceName": "_epfid2d1_72",
  "SequenceVariant": "SK",
  "SeriesDescription": "exp2_30_to_AC-PC",
  "SeriesNumber": 5,
  "ShimSetting": [2352, 9473, -5380, 1064, 131, -215, 152, 101],
  "SliceThickness": 3.7,
  "SliceTiming": [0.995, 0, 1.0525, 0.06, 1.1125, 0.1175, 1.17, 0.1775, 1.2275, 0.235, 1.2875, 0.2925, 1.345, 0.3525, 1.405, 0.41, 1.4625, 0.4675, 1.52, 0.5275, 1.58, 0.585, 1.6375, 0.645, 1.695, 0.7025, 1.755, 0.76, 1.8125, 0.82, 1.8725, 0.8775, 1.93, 0.935],
  "SoftwareVersions": "syngo_MR_B17",
  "SpacingBetweenSlices": 3.7,
  "StationName": "MRC35149",
  "TaskName": "blank",
  "TotalReadoutTime": 0.0340802,
  "TxRefAmp": 275.567,
  "VendorReportedEchoSpacing": 0.00048,
  "dcmmeta_affine": [
    [-2.9965336322784424, 0.047856103628873825, 0.16773119568824768, 100.29457092285156],
    [-0.030148573219776154, 2.5593421459198, -1.9300222396850586, -60.38688659667969],
    [0.14098510146141052, 1.5644415616989136, 3.1522817611694336, -95.42554473876953],
    [0.0, 0.0, 0.0, 1.0]
],
  "dcmmeta_reorient_transform": [
    [0.0, -1.0, 0.0, 71.0],
    [1.0, 0.0, 0.0, 0.0],
    [0.0, 0.0, 1.0, 0.0],
    [0.0, 0.0, 0.0, 1.0]
],
  "dcmmeta_shape": [72, 72, 34, 450],
  "dcmmeta_slice_dim": 2,
  "dcmmeta_version": 0.6,
  "global": {
    "const": {
      "AcquisitionMatrix": [72, 0, 0, 72],
      "AngioFlag": "N",
      "BitsAllocated": 16,
      "BitsStored": 12,
      "Columns": 432,
      "EchoNumbers": 1,
      "EchoTime": 25.0,
      "EchoTrainLength": 1,
      "FlipAngle": 75.0,
      "HighBit": 11,
      "ImageOrientationPatient": [0.99884456941726, 0.01004952457434, 0.04699503379601, 0.01595203473586, 0.85311406811193, -0.5214805071882],
      "ImagePositionPatient": [-651.68252074213, -587.43475011088, 271.87195937779],
      "ImageType": [
        "ORIGINAL",
        "PRIMARY",
        "M",
        "ND",
        "MOSAIC"
],
      "ImagedNucleus": "1H",
      "ImagingFrequency": 123.254569,
      "InPlanePhaseEncodingDirection": "COL",
      "MRAcquisitionType": "2D",
      "MagneticFieldStrength": 3.0,
      "Manufacturer": "SIEMENS",
      "ManufacturerModelName": "TrioTim",
      "Modality": "MR",
      "NumberOfAverages": 1.0,
      "NumberOfPhaseEncodingSteps": 72,
      "PercentPhaseFieldOfView": 100.0,
      "PercentSampling": 100.0,
      "PerformedProcedureStepStartTime": "131318.343000",
      "PhotometricInterpretation": "MONOCHROME2",
      "PixelBandwidth": 2395.0,
      "PixelRepresentation": 0,
      "PixelSpacing": [3.0, 3.0],
      "ProtocolName": "exp2_30_to_AC-PC",
      "RepetitionTime": 2000.0,
      "Rows": 432,
      "SAR": 0.12390625353371,
      "SamplesPerPixel": 1,
      "ScanOptions": "FS",
      "ScanningSequence": "EP",
      "SequenceName": "*epfid2d1_72",
      "SequenceVariant": "SK",
      "SeriesDescription": "exp2_30_to_AC-PC",
      "SeriesNumber": 5,
      "SeriesTime": "134825.093000",
      "SliceLocation": -45.253415988121,
      "SliceThickness": 3.7000000476837,
      "SmallestImagePixelValue": 0,
      "SoftwareVersions": "syngo MR B17",
      "SpacingBetweenSlices": 3.6999999952924,
      "SpecificCharacterSet": "ISO_IR 100",
      "StudyID": "1",
      "StudyTime": "131318.265000",
      "TransmitCoilName": "Body",
      "VariableFlipAngleFlag": "N",
      "WindowCenterWidthExplanation": "Algo1",
      "dBdt": 0.0},
    "slices": {}
  },
  "time": {
    "samples": {
      "AcquisitionNumber": [1, 2, 3, 4, 5, 6, 7, 8, 9, 10, 11, 12, 13, 14, 15, 16, 17, 18, 19, 20, 21, 22, 23, 24, 25, 26, 27, 28, 29, 30, 31, 32, 33, 34, 35, 36, 37, 38, 39, 40, 41, 42, 43, 44, 45, 46, 47, 48, 49, 50, 51, 52, 53, 54, 55, 56, 57, 58, 59, 60, 61, 62, 63, 64, 65, 66, 67, 68, 69, 70, 71, 72, 73, 74, 75, 76, 77, 78, 79, 80, 81, 82, 83, 84, 85, 86, 87, 88, 89, 90, 91, 92, 93, 94, 95, 96, 97, 98, 99, 100, 101, 102, 103, 104, 105, 106, 107, 108, 109, 110, 111, 112, 113, 114, 115, 116, 117, 118, 119, 120, 121, 122, 123, 124, 125, 126, 127, 128, 129, 130, 131, 132, 133, 134, 135, 136, 137, 138, 139, 140, 141, 142, 143, 144, 145, 146, 147, 148, 149, 150, 151, 152, 153, 154, 155, 156, 157, 158, 159, 160, 161, 162, 163, 164, 165, 166, 167, 168, 169, 170, 171, 172, 173, 174, 175, 176, 177, 178, 179, 180, 181, 182, 183, 184, 185, 186, 187, 188, 189, 190, 191, 192, 193, 194, 195, 196, 197, 198, 199, 200, 201, 202, 203, 204, 205, 206, 207, 208, 209, 210, 211, 212, 213, 214, 215, 216, 217, 218, 219, 220, 221, 222, 223, 224, 225, 226, 227, 228, 229, 230, 231, 232, 233, 234, 235, 236, 237, 238, 239, 240, 241, 242, 243, 244, 245, 246, 247, 248, 249, 250, 251, 252, 253, 254, 255, 256, 257, 258, 259, 260, 261, 262, 263, 264, 265, 266, 267, 268, 269, 270, 271, 272, 273, 274, 275, 276, 277, 278, 279, 280, 281, 282, 283, 284, 285, 286, 287, 288, 289, 290, 291, 292, 293, 294, 295, 296, 297, 298, 299, 300, 301, 302, 303, 304, 305, 306, 307, 308, 309, 310, 311, 312, 313, 314, 315, 316, 317, 318, 319, 320, 321, 322, 323, 324, 325, 326, 327, 328, 329, 330, 331, 332, 333, 334, 335, 336, 337, 338, 339, 340, 341, 342, 343, 344, 345, 346, 347, 348, 349, 350, 351, 352, 353, 354, 355, 356, 357, 358, 359, 360, 361, 362, 363, 364, 365, 366, 367, 368, 369, 370, 371, 372, 373, 374, 375, 376, 377, 378, 379, 380, 381, 382, 383, 384, 385, 386, 387, 388, 389, 390, 391, 392, 393, 394, 395, 396, 397, 398, 399, 400, 401, 402, 403, 404, 405, 406, 407, 408, 409, 410, 411, 412, 413, 414, 415, 416, 417, 418, 419, 420, 421, 422, 423, 424, 425, 426, 427, 428, 429, 430, 431, 432, 433, 434, 435, 436, 437, 438, 439, 440, 441, 442, 443, 444, 445, 446, 447, 448, 449, 450],
      "AcquisitionTime": ["134805.947500", "134807.955000", "134809.962500", "134811.972500", "134813.980000", "134815.987500", "134817.995000", "134820.002500", "134822.012500", "134824.020000", "134826.027500", "134828.035000", "134830.042500", "134832.052500", "134834.060000", "134836.067500", "134838.075000", "134840.082500", "134842.092500", "134844.100000", "134846.107500", "134848.115000", "134850.125000", "134852.132500", "134854.140000", "134856.147500", "134858.155000", "134900.165000", "134902.172500", "134904.180000", "134906.187500", "134908.195000", "134910.205000", "134912.212500", "134914.220000", "134916.227500", "134918.237500", "134920.245000", "134922.252500", "134924.260000", "134926.267500", "134928.277500", "134930.285000", "134932.292500", "134934.300000", "134936.307500", "134938.317500", "134940.325000", "134942.332500", "134944.340000", "134946.350000", "134948.357500", "134950.365000", "134952.372500", "134954.380000", "134956.390000", "134958.397500", "135000.405000", "135002.412500", "135004.420000", "135006.430000", "135008.437500", "135010.445000", "135012.452500", "135014.460000", "135016.470000", "135018.477500", "135020.485000", "135022.492500", "135024.502500", "135026.510000", "135028.517500", "135030.525000", "135032.532500", "135034.542500", "135036.550000", "135038.557500", "135040.565000", "135042.572500", "135044.582500", "135046.590000", "135048.597500", "135050.605000", "135052.615000", "135054.622500", "135056.630000", "135058.637500", "135100.645000", "135102.655000", "135104.662500", "135106.670000", "135108.677500", "135110.685000", "135112.695000", "135114.702500", "135116.710000", "135118.717500", "135120.727500", "135122.735000", "135124.742500", "135126.750000", "135128.757500", "135130.767500", "135132.775000", "135134.782500", "135136.790000", "135138.797500", "135140.807500", "135142.815000", "135144.822500", "135146.830000", "135148.840000", "135150.847500", "135152.855000", "135154.862500", "135156.870000", "135158.880000", "135200.887500", "135202.895000", "135204.902500", "135206.910000", "135208.920000", "135210.927500", "135212.935000", "135214.942500", "135216.950000", "135218.960000", "135220.967500", "135222.975000", "135224.982500", "135226.992500", "135229.000000", "135231.007500", "135233.015000", "135235.022500", "135237.032500", "135239.040000", "135241.047500", "135243.055000", "135245.062500", "135247.072500", "135249.080000", "135251.087500", "135253.095000", "135255.105000", "135257.112500", "135259.120000", "135301.127500", "135303.135000", "135305.145000", "135307.152500", "135309.160000", "135311.167500", "135313.175000", "135315.185000", "135317.192500", "135319.200000", "135321.207500", "135323.217500", "135325.225000", "135327.232500", "135329.240000", "135331.247500", "135333.257500", "135335.265000", "135337.272500", "135339.280000", "135341.287500", "135343.297500", "135345.305000", "135347.312500", "135349.320000", "135351.327500", "135353.337500", "135355.345000", "135357.352500", "135359.360000", "135401.370000", "135403.377500", "135405.385000", "135407.392500", "135409.400000", "135411.410000", "135413.417500", "135415.425000", "135417.432500", "135419.440000", "135421.450000", "135423.457500", "135425.465000", "135427.472500", "135429.482500", "135431.490000", "135433.497500", "135435.505000", "135437.512500", "135439.522500", "135441.530000", "135443.537500", "135445.545000", "135447.552500", "135449.562500", "135451.570000", "135453.577500", "135455.585000", "135457.595000", "135459.602500", "135501.610000", "135503.617500", "135505.625000", "135507.635000", "135509.642500", "135511.650000", "135513.657500", "135515.665000", "135517.675000", "135519.682500", "135521.690000", "135523.697500", "135525.705000", "135527.715000", "135529.722500", "135531.730000", "135533.737500", "135535.747500", "135537.755000", "135539.762500", "135541.770000", "135543.777500", "135545.787500", "135547.795000", "135549.802500", "135551.810000", "135553.817500", "135555.827500", "135557.835000", "135559.842500", "135601.850000", "135603.860000", "135605.867500", "135607.875000", "135609.882500", "135611.890000", "135613.900000", "135615.907500", "135617.915000", "135619.922500", "135621.930000", "135623.940000", "135625.947500", "135627.955000", "135629.962500", "135631.972500", "135633.980000", "135635.987500", "135637.995000", "135640.002500", "135642.012500", "135644.020000", "135646.027500", "135648.035000", "135650.042500", "135652.052500", "135654.060000", "135656.067500", "135658.075000", "135700.082500", "135702.092500", "135704.100000", "135706.107500", "135708.115000", "135710.125000", "135712.132500", "135714.140000", "135716.147500", "135718.155000", "135720.165000", "135722.172500", "135724.180000", "135726.187500", "135728.195000", "135730.205000", "135732.212500", "135734.220000", "135736.227500", "135738.237500", "135740.245000", "135742.252500", "135744.260000", "135746.267500", "135748.277500", "135750.285000", "135752.292500", "135754.300000", "135756.307500", "135758.317500", "135800.325000", "135802.332500", "135804.340000", "135806.350000", "135808.357500", "135810.365000", "135812.372500", "135814.380000", "135816.390000", "135818.397500", "135820.405000", "135822.412500", "135824.420000", "135826.430000", "135828.437500", "135830.445000", "135832.452500", "135834.460000", "135836.470000", "135838.477500", "135840.485000", "135842.492500", "135844.502500", "135846.510000", "135848.517500", "135850.525000", "135852.532500", "135854.542500", "135856.550000", "135858.557500", "135900.565000", "135902.572500", "135904.582500", "135906.590000", "135908.597500", "135910.605000", "135912.615000", "135914.622500", "135916.630000", "135918.637500", "135920.645000", "135922.655000", "135924.662500", "135926.670000", "135928.677500", "135930.685000", "135932.695000", "135934.702500", "135936.710000", "135938.717500", "135940.727500", "135942.735000", "135944.742500", "135946.750000", "135948.757500", "135950.767500", "135952.775000", "135954.782500", "135956.790000", "135958.797500", "140000.807500", "140002.815000", "140004.822500", "140006.830000", "140008.840000", "140010.847500", "140012.855000", "140014.862500", "140016.870000", "140018.880000", "140020.887500", "140022.895000", "140024.902500", "140026.910000", "140028.920000", "140030.927500", "140032.935000", "140034.942500", "140036.950000", "140038.960000", "140040.967500", "140042.975000", "140044.982500", "140046.992500", "140049.000000", "140051.007500", "140053.015000", "140055.022500", "140057.032500", "140059.040000", "140101.047500", "140103.055000", "140105.062500", "140107.072500", "140109.080000", "140111.087500", "140113.095000", "140115.105000", "140117.112500", "140119.120000", "140121.127500", "140123.135000", "140125.145000", "140127.152500", "140129.160000", "140131.167500", "140133.175000", "140135.185000", "140137.192500", "140139.200000", "140141.207500", "140143.217500", "140145.225000", "140147.232500", "140149.240000", "140151.247500", "140153.257500", "140155.265000", "140157.272500", "140159.280000", "140201.287500", "140203.297500", "140205.305000", "140207.312500", "140209.320000", "140211.327500", "140213.337500", "140215.345000", "140217.352500", "140219.360000", "140221.370000", "140223.377500", "140225.385000", "140227.392500", "140229.400000", "140231.410000", "140233.417500", "140235.425000", "140237.432500", "140239.440000", "140241.450000", "140243.457500", "140245.465000", "140247.472500", "140249.482500", "140251.490000", "140253.497500", "140255.505000", "140257.512500", "140259.522500", "140301.530000", "140303.537500", "140305.545000", "140307.552500"],
      "ContentTime": ["134825.093000", "134825.093000", "134825.109000", "134825.109000", "134825.109000", "134825.109000", "134825.109000", "134825.109000", "134825.125000", "134905.093000", "134905.093000", "134905.093000", "134905.093000", "134905.093000", "134905.109000", "134905.109000", "134905.109000", "134905.109000", "134905.125000", "134905.125000", "134905.125000", "134905.125000", "134905.125000", "134905.125000", "134905.125000", "134905.140000", "134905.140000", "134905.140000", "134905.140000", "134945.093000", "134945.093000", "134945.093000", "134945.093000", "134945.093000", "134945.093000", "134945.093000", "134945.109000", "134945.109000", "134945.109000", "134945.109000", "134945.109000", "134945.125000", "134945.125000", "134945.125000", "134945.125000", "134945.125000", "134945.125000", "134945.125000", "134945.140000", "135025.093000", "135025.093000", "135025.093000", "135025.093000", "135025.109000", "135025.109000", "135025.109000", "135025.109000", "135025.109000", "135025.109000", "135025.109000", "135025.125000", "135025.125000", "135025.125000", "135025.125000", "135025.125000", "135025.125000", "135025.125000", "135025.140000", "135025.140000", "135105.093000", "135105.109000", "135105.109000", "135105.109000", "135105.109000", "135105.109000", "135105.125000", "135105.125000", "135105.125000", "135105.125000", "135105.125000", "135105.125000", "135105.125000", "135105.140000", "135105.140000", "135105.140000", "135105.140000", "135105.140000", "135105.140000", "135105.140000", "135145.093000", "135145.093000", "135145.093000", "135145.093000", "135145.093000", "135145.093000", "135145.093000", "135145.109000", "135145.109000", "135145.109000", "135145.109000", "135145.109000", "135145.109000", "135145.109000", "135145.125000", "135145.125000", "135145.125000", "135145.125000", "135145.125000", "135145.125000", "135225.093000", "135225.093000", "135225.093000", "135225.093000", "135225.093000", "135225.093000", "135225.109000", "135225.109000", "135225.109000", "135225.109000", "135225.125000", "135225.125000", "135225.125000", "135225.125000", "135225.125000", "135225.125000", "135225.140000", "135225.140000", "135225.140000", "135225.140000", "135305.093000", "135305.093000", "135305.093000", "135305.093000", "135305.093000", "135305.093000", "135305.109000", "135305.109000", "135305.109000", "135305.109000", "135305.109000", "135305.109000", "135305.109000", "135305.125000", "135305.125000", "135305.125000", "135305.125000", "135305.125000", "135305.125000", "135305.125000", "135345.093000", "135345.093000", "135345.093000", "135345.093000", "135345.093000", "135345.093000", "135345.109000", "135345.109000", "135345.109000", "135345.109000", "135345.109000", "135345.109000", "135345.109000", "135345.109000", "135345.125000", "135345.125000", "135345.125000", "135345.125000", "135345.140000", "135345.140000", "135425.093000", "135425.093000", "135425.093000", "135425.093000", "135425.093000", "135425.093000", "135425.109000", "135425.109000", "135425.109000", "135425.109000", "135425.109000", "135425.109000", "135425.109000", "135425.125000", "135425.125000", "135425.125000", "135425.125000", "135425.125000", "135425.125000", "135425.140000", "135505.093000", "135505.093000", "135505.093000", "135505.109000", "135505.109000", "135505.109000", "135505.109000", "135505.109000", "135505.109000", "135505.125000", "135505.125000", "135505.125000", "135505.125000", "135505.125000", "135505.125000", "135505.140000", "135505.140000", "135505.140000", "135505.140000", "135505.140000", "135545.093000", "135545.093000", "135545.093000", "135545.109000", "135545.109000", "135545.109000", "135545.109000", "135545.109000", "135545.109000", "135545.109000", "135545.125000", "135545.125000", "135545.125000", "135545.125000", "135545.125000", "135545.125000", "135545.125000", "135545.140000", "135545.140000", "135545.140000", "135625.093000", "135625.093000", "135625.093000", "135625.093000", "135625.093000", "135625.093000", "135625.109000", "135625.109000", "135625.109000", "135625.109000", "135625.109000", "135625.109000", "135625.109000", "135625.125000", "135625.125000", "135625.125000", "135625.125000", "135625.140000", "135625.140000", "135625.140000", "135705.093000", "135705.093000", "135705.093000", "135705.093000", "135705.093000", "135705.093000", "135705.109000", "135705.109000", "135705.109000", "135705.109000", "135705.109000", "135705.109000", "135705.125000", "135705.125000", "135705.125000", "135705.125000", "135705.125000", "135705.140000", "135705.140000", "135705.140000", "135745.093000", "135745.093000", "135745.093000", "135745.093000", "135745.093000", "135745.109000", "135745.109000", "135745.109000", "135745.125000", "135745.125000", "135745.125000", "135745.125000", "135745.125000", "135745.125000", "135745.125000", "135745.140000", "135745.140000", "135745.140000", "135745.140000", "135745.140000", "135805.093000", "135805.093000", "135805.093000", "135805.093000", "135805.093000", "135805.093000", "135805.109000", "135805.109000", "135805.109000", "135805.109000", "135845.093000", "135845.093000", "135845.093000", "135845.093000", "135845.093000", "135845.093000", "135845.109000", "135845.109000", "135845.109000", "135845.109000", "135845.125000", "135845.125000", "135845.125000", "135845.125000", "135845.125000", "135845.125000", "135845.125000", "135845.140000", "135845.140000", "135845.140000", "135925.093000", "135925.093000", "135925.093000", "135925.093000", "135925.093000", "135925.093000", "135925.109000", "135925.109000", "135925.109000", "135925.109000", "135925.109000", "135925.109000", "135925.109000", "135925.125000", "135925.125000", "135925.125000", "135925.125000", "135925.125000", "135925.125000", "135925.125000", "140005.093000", "140005.093000", "140005.093000", "140005.093000", "140005.093000", "140005.093000", "140005.109000", "140005.109000", "140005.109000", "140005.109000", "140005.109000", "140005.109000", "140005.109000", "140005.109000", "140005.125000", "140005.125000", "140005.125000", "140005.125000", "140005.140000", "140005.140000", "140045.093000", "140045.093000", "140045.093000", "140045.093000", "140045.093000", "140045.093000", "140045.093000", "140045.109000", "140045.109000", "140045.109000", "140045.109000", "140045.109000", "140045.109000", "140045.109000", "140045.125000", "140045.125000", "140045.125000", "140045.140000", "140045.140000", "140045.140000", "140125.093000", "140125.093000", "140125.093000", "140125.093000", "140125.093000", "140125.093000", "140125.109000", "140125.109000", "140125.109000", "140125.125000", "140125.125000", "140125.125000", "140125.125000", "140125.125000", "140125.140000", "140125.140000", "140125.140000", "140125.140000", "140125.140000", "140125.140000", "140205.093000", "140205.093000", "140205.093000", "140205.093000", "140205.093000", "140205.093000", "140205.109000", "140205.109000", "140205.109000", "140205.109000", "140205.109000", "140205.109000", "140205.125000", "140205.125000", "140205.125000", "140205.125000", "140205.125000", "140205.125000", "140205.140000", "140205.140000", "140245.093000", "140245.093000", "140245.093000", "140245.093000", "140245.093000", "140245.093000", "140245.109000", "140245.109000", "140245.109000", "140245.109000", "140245.109000", "140245.109000", "140245.109000", "140245.125000", "140245.125000", "140245.125000", "140245.125000", "140245.125000", "140245.125000", "140245.125000", "140305.953000", "140305.968000", "140305.968000", "140305.968000", "140305.968000", "140305.968000", "140305.968000", "140305.968000", "140305.984000", "140305.984000", "140305.984000"],
