{
  "AcquisitionMatrixPE": 72,
  "AcquisitionNumber": 1,
  "AcquisitionTime": "18:51:54.487500",
  "BandwidthPerPixelPhaseEncode": 28.935,
  "BaseResolution": 72,
  "CoilString": "C:HEA;HEP",
  "ConversionSoftware": "dcm2niix",
  "ConversionSoftwareVersion": "v1.0.20190410  GCC6.3.0",
  "DerivedVendorReportedEchoSpacing": 0.000480003,
  "DeviceSerialNumber": "35149",
  "DwellTime": 2.9e-06,
  "EchoTime": 0.025,
  "EffectiveEchoSpacing": 0.000480003,
  "FlipAngle": 75,
  "ImageOrientationPatientDICOM": [0.998967, -0.0244938, -0.0382702, 0.00150298, 0.859614, -0.510942],
  "ImageType": [
    "ORIGINAL",
    "PRIMARY",
    "M",
    "ND",
    "MOSAIC"
],
  "ImagingFrequency": 123.255,
  "InPlanePhaseEncodingDirectionDICOM": "COL",
  "InstitutionAddress": "Street_StreetNo_Rehovot_91E162_District_IL_ZIP",
  "InstitutionName": "Weizmann",
  "InstitutionalDepartmentName": "Department",
  "MRAcquisitionType": "2D",
  "MagneticFieldStrength": 3,
  "Manufacturer": "Siemens",
  "ManufacturersModelName": "TrioTim",
  "Modality": "MR",
  "PartialFourier": 1,
  "PatientPosition": "HFS",
  "PercentPhaseFOV": 100,
  "PhaseEncodingDirection": "j-",
  "PhaseEncodingSteps": 72,
  "PhaseResolution": 1,
  "PixelBandwidth": 2395,
  "ProcedureStepDescription": "Weizmann_Sobel",
  "ProtocolName": "exp1_30_to_AC-PC",
  "PulseSequenceDetails": "%SiemensSeq%_ep2d_pace",
  "ReceiveCoilName": "HeadMatrix",
  "ReconMatrixPE": 72,
  "RepetitionTime": 2,
  "SAR": 0.121889,
  "ScanOptions": "FS",
  "ScanningSequence": "EP",
  "SequenceName": "_epfid2d1_72",
  "SequenceVariant": "SK",
  "SeriesDescription": "exp1_30_to_AC-PC",
  "SeriesNumber": 5,
  "ShimSetting": [2324, 9476, -5446, 756, 120, -399, 91, 186],
  "SliceThickness": 3.7,
  "SliceTiming": [0.995, 0, 1.0525, 0.0575, 1.11, 0.1175, 1.17, 0.175, 1.2275, 0.235, 1.285, 0.2925, 1.345, 0.35, 1.4025, 0.41, 1.4625, 0.4675, 1.52, 0.5275, 1.5775, 0.585, 1.6375, 0.6425, 1.695, 0.7025, 1.755, 0.76, 1.8125, 0.8175, 1.87, 0.8775, 1.93, 0.935],
  "SoftwareVersions": "syngo_MR_B17",
  "SpacingBetweenSlices": 3.7,
  "StationName": "MRC35149",
  "TaskName": "bodyodor",
  "TotalReadoutTime": 0.0340802,
  "TxRefAmp": 268.807,
  "VendorReportedEchoSpacing": 0.00048,
  "dcmmeta_affine": [
    [-2.996901512145996, 0.0045089409686625, -0.16802622377872467, 98.93474578857422],
    [0.07348151504993439, 2.5788421630859375, -1.8883187770843506, -57.934024810791016],
    [-0.11481048911809921, 1.5328248739242554, 3.1774234771728516, -88.38363647460938],
    [0.0, 0.0, 0.0, 1.0]
],
  "dcmmeta_reorient_transform": [
    [0.0, -1.0, 0.0, 71.0],
    [1.0, 0.0, 0.0, 0.0],
    [0.0, 0.0, 1.0, 0.0],
    [0.0, 0.0, 0.0, 1.0]
],
  "dcmmeta_shape": [72, 72, 34, 449],
  "dcmmeta_slice_dim": 2,
  "dcmmeta_version": 0.6,
  "global": {
    "const": {
      "AcquisitionMatrix": [72, 0, 0, 72],
      "AngioFlag": "N",
      "BitsAllocated": 16,
      "BitsStored": 12,
      "Columns": 432,
      "EchoNumbers": 1,
      "EchoTime": 25.0,
      "EchoTrainLength": 1,
      "FlipAngle": 75.0,
      "HighBit": 11,
      "ImageOrientationPatient": [0.99896718993593, -0.0244938373324, -0.0382701628458, 0.00150298026779, 0.85961408968559, -0.5109416384132],
      "ImagePositionPatient": [-639.50877566921, -576.12871438791, 317.02130822042],
      "ImageType": [
        "ORIGINAL",
        "PRIMARY",
        "M",
        "ND",
        "MOSAIC"
],
      "ImagedNucleus": "1H",
      "ImagingFrequency": 123.254586,
      "InPlanePhaseEncodingDirection": "COL",
      "MRAcquisitionType": "2D",
      "MagneticFieldStrength": 3.0,
      "Manufacturer": "SIEMENS",
      "ManufacturerModelName": "TrioTim",
      "Modality": "MR",
      "NumberOfAverages": 1.0,
      "NumberOfPhaseEncodingSteps": 72,
      "PercentPhaseFieldOfView": 100.0,
      "PercentSampling": 100.0,
      "PerformedProcedureStepStartTime": "182601.125000",
      "PhotometricInterpretation": "MONOCHROME2",
      "PixelBandwidth": 2395.0,
      "PixelRepresentation": 0,
      "PixelSpacing": [3.0, 3.0],
      "ProtocolName": "exp1_30_to_AC-PC",
      "RepetitionTime": 2000.0,
      "Rows": 432,
      "SAR": 0.12188920530111,
      "SamplesPerPixel": 1,
      "ScanOptions": "FS",
      "ScanningSequence": "EP",
      "SequenceName": "*epfid2d1_72",
      "SequenceVariant": "SK",
      "SeriesDescription": "exp1_30_to_AC-PC",
      "SeriesNumber": 5,
      "SeriesTime": "185238.421000",
      "SliceLocation": -50.826475114145,
      "SliceThickness": 3.7000000476837,
      "SmallestImagePixelValue": 0,
      "SoftwareVersions": "syngo MR B17",
      "SpacingBetweenSlices": 3.7000000715338,
      "SpecificCharacterSet": "ISO_IR 100",
      "StudyID": "1",
      "StudyTime": "182601.062000",
      "TransmitCoilName": "Body",
      "VariableFlipAngleFlag": "N",
      "WindowCenterWidthExplanation": "Algo1",
      "dBdt": 0.0},
    "slices": {}
  },
  "time": {
    "samples": {
      "AcquisitionNumber": [1, 2, 3, 4, 5, 6, 7, 8, 9, 10, 11, 12, 13, 14, 15, 16, 17, 18, 19, 20, 21, 22, 23, 24, 25, 26, 27, 28, 29, 30, 31, 32, 33, 34, 35, 36, 37, 38, 39, 40, 41, 42, 43, 44, 45, 46, 47, 48, 49, 50, 51, 52, 53, 54, 55, 56, 57, 58, 59, 60, 61, 62, 63, 64, 65, 66, 67, 68, 69, 70, 71, 72, 73, 74, 75, 76, 77, 78, 79, 80, 81, 82, 83, 84, 85, 86, 87, 88, 89, 90, 91, 92, 93, 94, 95, 96, 97, 98, 99, 100, 101, 102, 103, 104, 105, 106, 107, 108, 109, 110, 111, 112, 113, 114, 115, 116, 117, 118, 119, 120, 121, 122, 123, 124, 125, 126, 127, 128, 129, 130, 131, 132, 133, 134, 135, 136, 137, 138, 139, 140, 141, 142, 143, 144, 145, 146, 147, 148, 149, 150, 151, 152, 153, 154, 155, 156, 157, 158, 159, 160, 161, 162, 163, 164, 165, 166, 167, 168, 169, 170, 171, 172, 173, 174, 175, 176, 177, 178, 179, 180, 181, 182, 183, 184, 185, 186, 187, 188, 189, 190, 191, 192, 193, 194, 195, 196, 197, 198, 199, 200, 201, 202, 203, 204, 205, 206, 207, 208, 209, 210, 211, 212, 213, 214, 215, 216, 217, 218, 219, 220, 221, 222, 223, 224, 225, 226, 227, 228, 229, 230, 231, 232, 233, 234, 235, 236, 237, 238, 239, 240, 241, 242, 243, 244, 245, 246, 247, 248, 249, 250, 251, 252, 253, 254, 255, 256, 257, 258, 259, 260, 261, 262, 263, 264, 265, 266, 267, 268, 269, 270, 271, 272, 273, 274, 275, 276, 277, 278, 279, 280, 281, 282, 283, 284, 285, 286, 287, 288, 289, 290, 291, 292, 293, 294, 295, 296, 297, 298, 299, 300, 301, 302, 303, 304, 305, 306, 307, 308, 309, 310, 311, 312, 313, 314, 315, 316, 317, 318, 319, 320, 321, 322, 323, 324, 325, 326, 327, 328, 329, 330, 331, 332, 333, 334, 335, 336, 337, 338, 339, 340, 341, 342, 343, 344, 345, 346, 347, 348, 349, 350, 351, 352, 353, 354, 355, 356, 357, 358, 359, 360, 361, 362, 363, 364, 365, 366, 367, 368, 369, 370, 371, 372, 373, 374, 375, 376, 377, 378, 379, 380, 381, 382, 383, 384, 385, 386, 387, 388, 389, 390, 391, 392, 393, 394, 395, 396, 397, 398, 399, 400, 401, 402, 403, 404, 405, 406, 407, 408, 409, 410, 411, 412, 413, 414, 415, 416, 417, 418, 419, 420, 421, 422, 423, 424, 425, 426, 427, 428, 429, 430, 431, 432, 433, 434, 435, 436, 437, 438, 439, 440, 441, 442, 443, 444, 445, 446, 447, 448, 449],
      "AcquisitionTime": ["185154.487500", "185156.495000", "185158.502500", "185200.510000", "185202.517500", "185204.527500", "185206.535000", "185208.542500", "185210.550000", "185212.557500", "185214.567500", "185216.575000", "185218.582500", "185220.590000", "185222.600000", "185224.607500", "185226.615000", "185228.622500", "185230.630000", "185232.640000", "185234.647500", "185236.655000", "185238.662500", "185240.670000", "185242.680000", "185244.687500", "185246.695000", "185248.702500", "185250.712500", "185252.720000", "185254.727500", "185256.735000", "185258.742500", "185300.752500", "185302.760000", "185304.767500", "185306.775000", "185308.782500", "185310.792500", "185312.800000", "185314.807500", "185316.815000", "185318.825000", "185320.832500", "185322.840000", "185324.847500", "185326.855000", "185328.865000", "185330.872500", "185332.880000", "185334.887500", "185336.895000", "185338.905000", "185340.912500", "185342.920000", "185344.927500", "185346.935000", "185348.945000", "185350.952500", "185352.960000", "185354.967500", "185356.977500", "185358.985000", "185400.992500", "185403.000000", "185405.007500", "185407.017500", "185409.025000", "185411.032500", "185413.040000", "185415.047500", "185417.057500", "185419.065000", "185421.072500", "185423.080000", "185425.090000", "185427.097500", "185429.105000", "185431.112500", "185433.120000", "185435.130000", "185437.137500", "185439.145000", "185441.152500", "185443.160000", "185445.170000", "185447.177500", "185449.185000", "185451.192500", "185453.202500", "185455.210000", "185457.217500", "185459.225000", "185501.232500", "185503.242500", "185505.250000", "185507.257500", "185509.265000", "185511.272500", "185513.282500", "185515.290000", "185517.297500", "185519.305000", "185521.315000", "185523.322500", "185525.330000", "185527.337500", "185529.345000", "185531.355000", "185533.362500", "185535.370000", "185537.377500", "185539.385000", "185541.395000", "185543.402500", "185545.410000", "185547.417500", "185549.425000", "185551.435000", "185553.442500", "185555.450000", "185557.457500", "185559.467500", "185601.475000", "185603.482500", "185605.490000", "185607.497500", "185609.507500", "185611.515000", "185613.522500", "185615.530000", "185617.537500", "185619.547500", "185621.555000", "185623.562500", "185625.570000", "185627.580000", "185629.587500", "185631.595000", "185633.602500", "185635.610000", "185637.620000", "185639.627500", "185641.635000", "185643.642500", "185645.650000", "185647.660000", "185649.667500", "185651.675000", "185653.682500", "185655.692500", "185657.700000", "185659.707500", "185701.715000", "185703.722500", "185705.732500", "185707.740000", "185709.747500", "185711.755000", "185713.762500", "185715.772500", "185717.780000", "185719.787500", "185721.795000", "185723.802500", "185725.812500", "185727.820000", "185729.827500", "185731.835000", "185733.845000", "185735.852500", "185737.860000", "185739.867500", "185741.875000", "185743.885000", "185745.892500", "185747.900000", "185749.907500", "185751.915000", "185753.925000", "185755.932500", "185757.940000", "185759.947500", "185801.957500", "185803.965000", "185805.972500", "185807.980000", "185809.987500", "185811.997500", "185814.005000", "185816.012500", "185818.020000", "185820.027500", "185822.037500", "185824.045000", "185826.052500", "185828.060000", "185830.070000", "185832.077500", "185834.085000", "185836.092500", "185838.100000", "185840.110000", "185842.117500", "185844.125000", "185846.132500", "185848.140000", "185850.150000", "185852.157500", "185854.165000", "185856.172500", "185858.180000", "185900.190000", "185902.197500", "185904.205000", "185906.212500", "185908.222500", "185910.230000", "185912.237500", "185914.245000", "185916.252500", "185918.262500", "185920.270000", "185922.277500", "185924.285000", "185926.292500", "185928.302500", "185930.310000", "185932.317500", "185934.325000", "185936.335000", "185938.342500", "185940.350000", "185942.357500", "185944.365000", "185946.375000", "185948.382500", "185950.390000", "185952.397500", "185954.405000", "185956.415000", "185958.422500", "190000.430000", "190002.437500", "190004.447500", "190006.455000", "190008.462500", "190010.470000", "190012.477500", "190014.487500", "190016.495000", "190018.502500", "190020.510000", "190022.517500", "190024.527500", "190026.535000", "190028.542500", "190030.550000", "190032.557500", "190034.567500", "190036.575000", "190038.582500", "190040.590000", "190042.600000", "190044.607500", "190046.615000", "190048.622500", "190050.630000", "190052.640000", "190054.647500", "190056.655000", "190058.662500", "190100.670000", "190102.680000", "190104.687500", "190106.695000", "190108.702500", "190110.712500", "190112.720000", "190114.727500", "190116.735000", "190118.742500", "190120.752500", "190122.760000", "190124.767500", "190126.775000", "190128.782500", "190130.792500", "190132.800000", "190134.807500", "190136.815000", "190138.825000", "190140.832500", "190142.840000", "190144.847500", "190146.855000", "190148.865000", "190150.872500", "190152.880000", "190154.887500", "190156.895000", "190158.905000", "190200.912500", "190202.920000", "190204.927500", "190206.935000", "190208.945000", "190210.952500", "190212.960000", "190214.967500", "190216.977500", "190218.985000", "190220.992500", "190223.000000", "190225.007500", "190227.017500", "190229.025000", "190231.032500", "190233.040000", "190235.047500", "190237.057500", "190239.065000", "190241.072500", "190243.080000", "190245.090000", "190247.097500", "190249.105000", "190251.112500", "190253.120000", "190255.130000", "190257.137500", "190259.145000", "190301.152500", "190303.160000", "190305.170000", "190307.177500", "190309.185000", "190311.192500", "190313.202500", "190315.210000", "190317.217500", "190319.225000", "190321.232500", "190323.242500", "190325.250000", "190327.257500", "190329.265000", "190331.272500", "190333.282500", "190335.290000", "190337.297500", "190339.305000", "190341.315000", "190343.322500", "190345.330000", "190347.337500", "190349.345000", "190351.355000", "190353.362500", "190355.370000", "190357.377500", "190359.385000", "190401.395000", "190403.402500", "190405.410000", "190407.417500", "190409.425000", "190411.435000", "190413.442500", "190415.450000", "190417.457500", "190419.467500", "190421.475000", "190423.482500", "190425.490000", "190427.497500", "190429.507500", "190431.515000", "190433.522500", "190435.530000", "190437.537500", "190439.547500", "190441.555000", "190443.562500", "190445.570000", "190447.580000", "190449.587500", "190451.595000", "190453.602500", "190455.610000", "190457.620000", "190459.627500", "190501.635000", "190503.642500", "190505.650000", "190507.660000", "190509.667500", "190511.675000", "190513.682500", "190515.692500", "190517.700000", "190519.707500", "190521.715000", "190523.722500", "190525.732500", "190527.740000", "190529.747500", "190531.755000", "190533.762500", "190535.772500", "190537.780000", "190539.787500", "190541.795000", "190543.802500", "190545.812500", "190547.820000", "190549.827500", "190551.835000", "190553.845000", "190555.852500", "190557.860000", "190559.867500", "190601.875000", "190603.885000", "190605.892500", "190607.900000", "190609.907500", "190611.915000", "190613.925000", "190615.932500", "190617.940000", "190619.947500", "190621.957500", "190623.965000", "190625.972500", "190627.980000", "190629.987500", "190631.997500", "190634.005000", "190636.012500", "190638.020000", "190640.027500", "190642.037500", "190644.045000", "190646.052500", "190648.060000", "190650.070000", "190652.077500", "190654.085000"],
      "ContentTime": ["185238.437000", "185238.437000", "185238.437000", "185238.453000", "185238.453000", "185238.453000", "185238.453000", "185238.453000", "185238.453000", "185238.453000", "185238.468000", "185238.468000", "185238.468000", "185238.468000", "185238.468000", "185238.468000", "185238.468000", "185238.484000", "185238.484000", "185238.484000", "185238.484000", "185238.484000", "185318.421000", "185318.421000", "185318.421000", "185318.421000", "185318.437000", "185318.437000", "185318.437000", "185318.437000", "185318.437000", "185318.437000", "185318.437000", "185318.453000", "185318.453000", "185318.453000", "185318.453000", "185318.453000", "185318.453000", "185318.453000", "185318.468000", "185318.468000", "185358.421000", "185358.421000", "185358.421000", "185358.421000", "185358.437000", "185358.437000", "185358.437000", "185358.437000", "185358.437000", "185358.453000", "185358.453000", "185358.453000", "185358.468000", "185358.468000", "185358.468000", "185358.468000", "185358.468000", "185358.468000", "185358.484000", "185358.484000", "185438.421000", "185438.421000", "185438.421000", "185438.421000", "185438.437000", "185438.437000", "185438.437000", "185438.437000", "185438.453000", "185438.453000", "185438.453000", "185438.453000", "185438.468000", "185438.468000", "185438.468000", "185438.468000", "185438.468000", "185438.468000", "185438.468000", "185438.484000", "185518.421000", "185518.421000", "185518.421000", "185518.421000", "185518.437000", "185518.437000", "185518.437000", "185518.437000", "185518.437000", "185518.453000", "185518.453000", "185518.453000", "185518.468000", "185518.468000", "185518.468000", "185518.468000", "185518.468000", "185518.484000", "185518.484000", "185518.484000", "185558.421000", "185558.421000", "185558.421000", "185558.421000", "185558.437000", "185558.437000", "185558.437000", "185558.437000", "185558.437000", "185558.437000", "185558.437000", "185558.453000", "185558.453000", "185558.468000", "185558.468000", "185558.468000", "185558.484000", "185558.484000", "185558.484000", "185558.484000", "185638.421000", "185638.421000", "185638.421000", "185638.421000", "185638.437000", "185638.437000", "185638.437000", "185638.437000", "185638.437000", "185638.437000", "185638.437000", "185638.453000", "185638.453000", "185638.453000", "185638.453000", "185638.453000", "185638.453000", "185638.453000", "185638.468000", "185638.468000", "185718.421000", "185718.421000", "185718.421000", "185718.421000", "185718.437000", "185718.437000", "185718.437000", "185718.437000", "185718.437000", "185718.437000", "185718.437000", "185718.453000", "185718.453000", "185718.453000", "185718.453000", "185718.468000", "185718.468000", "185718.468000", "185718.484000", "185718.484000", "185758.421000", "185758.421000", "185758.421000", "185758.421000", "185758.437000", "185758.437000", "185758.437000", "185758.437000", "185758.437000", "185758.453000", "185758.453000", "185758.453000", "185758.468000", "185758.468000", "185758.468000", "185758.468000", "185758.468000", "185758.484000", "185758.484000", "185758.484000", "185838.421000", "185838.421000", "185838.421000", "185838.421000", "185838.437000", "185838.437000", "185838.437000", "185838.453000", "185838.453000", "185838.453000", "185838.453000", "185838.453000", "185838.453000", "185838.453000", "185838.453000", "185838.468000", "185838.468000", "185838.468000", "185838.468000", "185838.468000", "185918.421000", "185918.421000", "185918.421000", "185918.421000", "185918.437000", "185918.437000", "185918.437000", "185918.453000", "185918.453000", "185918.453000", "185918.453000", "185918.453000", "185918.453000", "185918.453000", "185918.468000", "185918.468000", "185918.468000", "185918.468000", "185918.468000", "185918.468000", "185958.421000", "185958.421000", "185958.421000", "185958.421000", "185958.437000", "185958.437000", "185958.437000", "185958.437000", "185958.437000", "185958.437000", "185958.437000", "185958.453000", "185958.453000", "185958.453000", "185958.453000", "185958.453000", "185958.453000", "185958.453000", "185958.468000", "185958.468000", "190038.421000", "190038.421000", "190038.421000", "190038.421000", "190038.437000", "190038.437000", "190038.437000", "190038.437000", "190038.437000", "190038.453000", "190038.453000", "190038.453000", "190038.453000", "190038.453000", "190038.468000", "190038.468000", "190038.468000", "190038.468000", "190038.468000", "190038.468000", "190118.421000", "190118.421000", "190118.421000", "190118.421000", "190118.437000", "190118.437000", "190118.437000", "190118.437000", "190118.437000", "190118.437000", "190118.437000", "190118.453000", "190118.453000", "190118.453000", "190118.453000", "190118.453000", "190118.453000", "190118.453000", "190118.468000", "190118.468000", "190158.421000", "190158.421000", "190158.437000", "190158.437000", "190158.437000", "190158.437000", "190158.437000", "190158.437000", "190158.437000", "190158.453000", "190158.453000", "190158.453000", "190158.453000", "190158.453000", "190158.453000", "190158.453000", "190158.468000", "190158.468000", "190158.468000", "190158.468000", "190238.421000", "190238.421000", "190238.437000", "190238.437000", "190238.437000", "190238.437000", "190238.437000", "190238.437000", "190238.437000", "190238.453000", "190238.453000", "190238.453000", "190238.453000", "190238.453000", "190238.453000", "190238.453000", "190238.468000", "190238.468000", "190238.468000", "190238.468000", "190318.421000", "190318.421000", "190318.437000", "190318.437000", "190318.437000", "190318.437000", "190318.437000", "190318.437000", "190318.437000", "190318.453000", "190318.453000", "190318.453000", "190318.453000", "190318.453000", "190318.468000", "190318.468000", "190318.484000", "190318.484000", "190318.484000", "190318.484000", "190358.421000", "190358.421000", "190358.437000", "190358.437000", "190358.437000", "190358.437000", "190358.453000", "190358.453000", "190358.453000", "190358.453000", "190358.453000", "190358.453000", "190358.453000", "190358.468000", "190358.468000", "190358.468000", "190358.468000", "190358.468000", "190358.468000", "190358.468000", "190438.421000", "190438.421000", "190438.437000", "190438.437000", "190438.437000", "190438.437000", "190438.437000", "190438.437000", "190438.453000", "190438.453000", "190438.453000", "190438.453000", "190438.453000", "190438.453000", "190438.453000", "190438.468000", "190438.468000", "190438.468000", "190438.468000", "190438.484000", "190518.421000", "190518.421000", "190518.437000", "190518.437000", "190518.437000", "190518.437000", "190518.437000", "190518.437000", "190518.437000", "190518.453000", "190518.453000", "190518.453000", "190518.453000", "190518.453000", "190518.453000", "190518.453000", "190518.468000", "190518.468000", "190518.468000", "190518.468000", "190558.421000", "190558.421000", "190558.437000", "190558.437000", "190558.437000", "190558.437000", "190558.437000", "190558.437000", "190558.437000", "190558.453000", "190558.453000", "190558.453000", "190558.453000", "190558.453000", "190558.453000", "190558.453000", "190558.468000", "190558.468000", "190558.468000", "190558.468000", "190638.421000", "190638.421000", "190638.437000", "190638.437000", "190638.437000", "190638.437000", "190638.437000", "190638.437000", "190638.437000", "190638.453000", "190638.453000", "190638.453000", "190638.453000", "190638.468000", "190638.468000", "190638.468000", "190638.468000", "190638.484000", "190638.484000", "190638.484000", "190652.343000", "190652.343000", "190652.359000", "190652.359000", "190652.359000", "190652.359000", "190652.375000"],
