{
  "AcquisitionMatrixPE": 72,
  "AcquisitionNumber": 1,
  "AcquisitionTime": "09:00:0.197500",
  "BandwidthPerPixelPhaseEncode": 28.935,
  "BaseResolution": 72,
  "CoilString": "C:HEA;HEP",
  "ConversionSoftware": "dcm2niix",
  "ConversionSoftwareVersion": "v1.0.20190410  GCC6.3.0",
  "DerivedVendorReportedEchoSpacing": 0.000480003,
  "DeviceSerialNumber": "35149",
  "DwellTime": 2.9e-06,
  "EchoTime": 0.025,
  "EffectiveEchoSpacing": 0.000480003,
  "FlipAngle": 75,
  "ImageOrientationPatientDICOM": [0.996751, 0.0736636, 0.0325666, -0.0515755, 0.894343, -0.444399],
  "ImageType": [
    "ORIGINAL",
    "PRIMARY",
    "M",
    "ND",
    "MOSAIC"
],
  "ImagingFrequency": 123.255,
  "InPlanePhaseEncodingDirectionDICOM": "COL",
  "InstitutionAddress": "Street_StreetNo_Rehovot_91E162_District_IL_ZIP",
  "InstitutionName": "Weizmann",
  "InstitutionalDepartmentName": "Department",
  "MRAcquisitionType": "2D",
  "MagneticFieldStrength": 3,
  "Manufacturer": "Siemens",
  "ManufacturersModelName": "TrioTim",
  "Modality": "MR",
  "PartialFourier": 1,
  "PatientPosition": "HFS",
  "PercentPhaseFOV": 100,
  "PhaseEncodingDirection": "j-",
  "PhaseEncodingSteps": 72,
  "PhaseResolution": 1,
  "PixelBandwidth": 2395,
  "ProcedureStepDescription": "Weizmann_Sobel",
  "ProtocolName": "exp1_30_to_AC-PC",
  "PulseSequenceDetails": "%SiemensSeq%_ep2d_pace",
  "ReceiveCoilName": "HeadMatrix",
  "ReconMatrixPE": 72,
  "RepetitionTime": 2,
  "SAR": 0.142609,
  "ScanOptions": "FS",
  "ScanningSequence": "EP",
  "SequenceName": "_epfid2d1_72",
  "SequenceVariant": "SK",
  "SeriesDescription": "exp1_30_to_AC-PC",
  "SeriesNumber": 3,
  "ShimSetting": [2336, 9637, -5419, 948, 67, 474, -572, 374],
  "SliceThickness": 3.7,
  "SliceTiming": [0.995, 0, 1.0525, 0.06, 1.11, 0.1175, 1.17, 0.175, 1.2275, 0.235, 1.2875, 0.2925, 1.345, 0.35, 1.4025, 0.41, 1.4625, 0.4675, 1.52, 0.5275, 1.58, 0.585, 1.6375, 0.6425, 1.695, 0.7025, 1.755, 0.76, 1.8125, 0.82, 1.87, 0.8775, 1.93, 0.935],
  "SoftwareVersions": "syngo_MR_B17",
  "SpacingBetweenSlices": 3.7,
  "StationName": "MRC35149",
  "TaskName": "bodyodor",
  "TotalReadoutTime": 0.0340802,
  "TxRefAmp": 273.476,
  "VendorReportedEchoSpacing": 0.00048,
  "dcmmeta_affine": [
    [-2.9902536869049072, -0.15472659468650818, 0.22888849675655365, 111.70993041992188],
    [-0.22099089622497559, 2.68302845954895, -1.6327214241027832, -52.619136810302734],
    [0.09769971668720245, 1.3331983089447021, 3.312375545501709, -93.74887084960938],
    [0.0, 0.0, 0.0, 1.0]
],
  "dcmmeta_reorient_transform": [
    [0.0, -1.0, 0.0, 71.0],
    [1.0, 0.0, 0.0, 0.0],
    [0.0, 0.0, 1.0, 0.0],
    [0.0, 0.0, 0.0, 1.0]
],
  "dcmmeta_shape": [72, 72, 34, 450],
  "dcmmeta_slice_dim": 2,
  "dcmmeta_version": 0.6,
  "global": {
    "const": {
      "AcquisitionMatrix": [72, 0, 0, 72],
      "AngioFlag": "N",
      "BitsAllocated": 16,
      "BitsStored": 12,
      "Columns": 432,
      "EchoNumbers": 1,
      "EchoTime": 25.0,
      "EchoTrainLength": 1,
      "FlipAngle": 75.0,
      "HighBit": 11,
      "ImageOrientationPatient": [0.99675126680681, 0.07366363089143, 0.03256657186316, -0.0515755296283, 0.89434283611968, -0.4443994331961],
      "ImagePositionPatient": [-611.1192417378, -660.59937882511, 223.29795384831],
      "ImageType": [
        "ORIGINAL",
        "PRIMARY",
        "M",
        "ND",
        "MOSAIC"
],
      "ImagedNucleus": "1H",
      "ImagingFrequency": 123.254643,
      "InPlanePhaseEncodingDirection": "COL",
      "MRAcquisitionType": "2D",
      "MagneticFieldStrength": 3.0,
      "Manufacturer": "SIEMENS",
      "ManufacturerModelName": "TrioTim",
      "Modality": "MR",
      "NumberOfAverages": 1.0,
      "NumberOfPhaseEncodingSteps": 72,
      "PercentPhaseFieldOfView": 100.0,
      "PercentSampling": 100.0,
      "PerformedProcedureStepStartTime": "084656.984000",
      "PhotometricInterpretation": "MONOCHROME2",
      "PixelBandwidth": 2395.0,
      "PixelRepresentation": 0,
      "PixelSpacing": [3.0, 3.0],
      "ProtocolName": "exp1_30_to_AC-PC",
      "RepetitionTime": 2000.0,
      "Rows": 432,
      "SAR": 0.1426093018646,
      "SamplesPerPixel": 1,
      "ScanOptions": "FS",
      "ScanningSequence": "EP",
      "SequenceName": "*epfid2d1_72",
      "SequenceVariant": "SK",
      "SeriesDescription": "exp1_30_to_AC-PC",
      "SeriesNumber": 3,
      "SeriesTime": "090045.171000",
      "SliceLocation": -53.797281532554,
      "SliceThickness": 3.7000000476837,
      "SmallestImagePixelValue": 0,
      "SoftwareVersions": "syngo MR B17",
      "SpacingBetweenSlices": 3.7000000316964,
      "SpecificCharacterSet": "ISO_IR 100",
      "StudyID": "1",
      "StudyTime": "084656.906000",
      "TransmitCoilName": "Body",
      "VariableFlipAngleFlag": "N",
      "WindowCenterWidthExplanation": "Algo1",
      "dBdt": 0.0},
    "slices": {}
  },
  "time": {
    "samples": {
      "AcquisitionNumber": [1, 2, 3, 4, 5, 6, 7, 8, 9, 10, 11, 12, 13, 14, 15, 16, 17, 18, 19, 20, 21, 22, 23, 24, 25, 26, 27, 28, 29, 30, 31, 32, 33, 34, 35, 36, 37, 38, 39, 40, 41, 42, 43, 44, 45, 46, 47, 48, 49, 50, 51, 52, 53, 54, 55, 56, 57, 58, 59, 60, 61, 62, 63, 64, 65, 66, 67, 68, 69, 70, 71, 72, 73, 74, 75, 76, 77, 78, 79, 80, 81, 82, 83, 84, 85, 86, 87, 88, 89, 90, 91, 92, 93, 94, 95, 96, 97, 98, 99, 100, 101, 102, 103, 104, 105, 106, 107, 108, 109, 110, 111, 112, 113, 114, 115, 116, 117, 118, 119, 120, 121, 122, 123, 124, 125, 126, 127, 128, 129, 130, 131, 132, 133, 134, 135, 136, 137, 138, 139, 140, 141, 142, 143, 144, 145, 146, 147, 148, 149, 150, 151, 152, 153, 154, 155, 156, 157, 158, 159, 160, 161, 162, 163, 164, 165, 166, 167, 168, 169, 170, 171, 172, 173, 174, 175, 176, 177, 178, 179, 180, 181, 182, 183, 184, 185, 186, 187, 188, 189, 190, 191, 192, 193, 194, 195, 196, 197, 198, 199, 200, 201, 202, 203, 204, 205, 206, 207, 208, 209, 210, 211, 212, 213, 214, 215, 216, 217, 218, 219, 220, 221, 222, 223, 224, 225, 226, 227, 228, 229, 230, 231, 232, 233, 234, 235, 236, 237, 238, 239, 240, 241, 242, 243, 244, 245, 246, 247, 248, 249, 250, 251, 252, 253, 254, 255, 256, 257, 258, 259, 260, 261, 262, 263, 264, 265, 266, 267, 268, 269, 270, 271, 272, 273, 274, 275, 276, 277, 278, 279, 280, 281, 282, 283, 284, 285, 286, 287, 288, 289, 290, 291, 292, 293, 294, 295, 296, 297, 298, 299, 300, 301, 302, 303, 304, 305, 306, 307, 308, 309, 310, 311, 312, 313, 314, 315, 316, 317, 318, 319, 320, 321, 322, 323, 324, 325, 326, 327, 328, 329, 330, 331, 332, 333, 334, 335, 336, 337, 338, 339, 340, 341, 342, 343, 344, 345, 346, 347, 348, 349, 350, 351, 352, 353, 354, 355, 356, 357, 358, 359, 360, 361, 362, 363, 364, 365, 366, 367, 368, 369, 370, 371, 372, 373, 374, 375, 376, 377, 378, 379, 380, 381, 382, 383, 384, 385, 386, 387, 388, 389, 390, 391, 392, 393, 394, 395, 396, 397, 398, 399, 400, 401, 402, 403, 404, 405, 406, 407, 408, 409, 410, 411, 412, 413, 414, 415, 416, 417, 418, 419, 420, 421, 422, 423, 424, 425, 426, 427, 428, 429, 430, 431, 432, 433, 434, 435, 436, 437, 438, 439, 440, 441, 442, 443, 444, 445, 446, 447, 448, 449, 450],
      "AcquisitionTime": ["090000.197500", "090002.205000", "090004.212500", "090006.220000", "090008.230000", "090010.237500", "090012.245000", "090014.252500", "090016.260000", "090018.270000", "090020.277500", "090022.285000", "090024.292500", "090026.300000", "090028.310000", "090030.317500", "090032.325000", "090034.332500", "090036.342500", "090038.350000", "090040.357500", "090042.365000", "090044.372500", "090046.382500", "090048.390000", "090050.397500", "090052.405000", "090054.412500", "090056.422500", "090058.430000", "090100.437500", "090102.445000", "090104.455000", "090106.462500", "090108.470000", "090110.477500", "090112.485000", "090114.495000", "090116.502500", "090118.510000", "090120.517500", "090122.525000", "090124.535000", "090126.542500", "090128.550000", "090130.557500", "090132.565000", "090134.575000", "090136.582500", "090138.590000", "090140.597500", "090142.607500", "090144.615000", "090146.622500", "090148.630000", "090150.637500", "090152.647500", "090154.655000", "090156.662500", "090158.670000", "090200.677500", "090202.687500", "090204.695000", "090206.702500", "090208.710000", "090210.720000", "090212.727500", "090214.735000", "090216.742500", "090218.750000", "090220.760000", "090222.767500", "090224.775000", "090226.782500", "090228.790000", "090230.800000", "090232.807500", "090234.815000", "090236.822500", "090238.832500", "090240.840000", "090242.847500", "090244.855000", "090246.862500", "090248.872500", "090250.880000", "090252.887500", "090254.895000", "090256.902500", "090258.912500", "090300.920000", "090302.927500", "090304.935000", "090306.942500", "090308.952500", "090310.960000", "090312.967500", "090314.975000", "090316.985000", "090318.992500", "090321.000000", "090323.007500", "090325.015000", "090327.025000", "090329.032500", "090331.040000", "090333.047500", "090335.055000", "090337.065000", "090339.072500", "090341.080000", "090343.087500", "090345.097500", "090347.105000", "090349.112500", "090351.120000", "090353.127500", "090355.137500", "090357.145000", "090359.152500", "090401.160000", "090403.167500", "090405.177500", "090407.185000", "090409.192500", "090411.200000", "090413.210000", "090415.217500", "090417.225000", "090419.232500", "090421.240000", "090423.250000", "090425.257500", "090427.265000", "090429.272500", "090431.280000", "090433.290000", "090435.297500", "090437.305000", "090439.312500", "090441.320000", "090443.330000", "090445.337500", "090447.345000", "090449.352500", "090451.362500", "090453.370000", "090455.377500", "090457.385000", "090459.392500", "090501.402500", "090503.410000", "090505.417500", "090507.425000", "090509.432500", "090511.442500", "090513.450000", "090515.457500", "090517.465000", "090519.475000", "090521.482500", "090523.490000", "090525.497500", "090527.505000", "090529.515000", "090531.522500", "090533.530000", "090535.537500", "090537.545000", "090539.555000", "090541.562500", "090543.570000", "090545.577500", "090547.587500", "090549.595000", "090551.602500", "090553.610000", "090555.617500", "090557.627500", "090559.635000", "090601.642500", "090603.650000", "090605.657500", "090607.667500", "090609.675000", "090611.682500", "090613.690000", "090615.697500", "090617.707500", "090619.715000", "090621.722500", "090623.730000", "090625.740000", "090627.747500", "090629.755000", "090631.762500", "090633.770000", "090635.780000", "090637.787500", "090639.795000", "090641.802500", "090643.810000", "090645.820000", "090647.827500", "090649.835000", "090651.842500", "090653.852500", "090655.860000", "090657.867500", "090659.875000", "090701.882500", "090703.892500", "090705.900000", "090707.907500", "090709.915000", "090711.922500", "090713.932500", "090715.940000", "090717.947500", "090719.955000", "090721.965000", "090723.972500", "090725.980000", "090727.987500", "090729.995000", "090732.005000", "090734.012500", "090736.020000", "090738.027500", "090740.035000", "090742.045000", "090744.052500", "090746.060000", "090748.067500", "090750.077500", "090752.085000", "090754.092500", "090756.100000", "090758.107500", "090800.117500", "090802.125000", "090804.132500", "090806.140000", "090808.147500", "090810.157500", "090812.165000", "090814.172500", "090816.180000", "090818.187500", "090820.197500", "090822.205000", "090824.212500", "090826.220000", "090828.230000", "090830.237500", "090832.245000", "090834.252500", "090836.260000", "090838.270000", "090840.277500", "090842.285000", "090844.292500", "090846.300000", "090848.310000", "090850.317500", "090852.325000", "090854.332500", "090856.342500", "090858.350000", "090900.357500", "090902.365000", "090904.372500", "090906.382500", "090908.390000", "090910.397500", "090912.405000", "090914.412500", "090916.422500", "090918.430000", "090920.437500", "090922.445000", "090924.455000", "090926.462500", "090928.470000", "090930.477500", "090932.485000", "090934.495000", "090936.502500", "090938.510000", "090940.517500", "090942.525000", "090944.535000", "090946.542500", "090948.550000", "090950.557500", "090952.565000", "090954.575000", "090956.582500", "090958.590000", "091000.597500", "091002.607500", "091004.615000", "091006.622500", "091008.630000", "091010.637500", "091012.647500", "091014.655000", "091016.662500", "091018.670000", "091020.677500", "091022.687500", "091024.695000", "091026.702500", "091028.710000", "091030.720000", "091032.727500", "091034.735000", "091036.742500", "091038.750000", "091040.760000", "091042.767500", "091044.775000", "091046.782500", "091048.790000", "091050.800000", "091052.807500", "091054.815000", "091056.822500", "091058.832500", "091100.840000", "091102.847500", "091104.855000", "091106.862500", "091108.872500", "091110.880000", "091112.887500", "091114.895000", "091116.902500", "091118.912500", "091120.920000", "091122.927500", "091124.935000", "091126.942500", "091128.952500", "091130.960000", "091132.967500", "091134.975000", "091136.985000", "091138.992500", "091141.000000", "091143.007500", "091145.015000", "091147.025000", "091149.032500", "091151.040000", "091153.047500", "091155.055000", "091157.065000", "091159.072500", "091201.080000", "091203.087500", "091205.097500", "091207.105000", "091209.112500", "091211.120000", "091213.127500", "091215.137500", "091217.145000", "091219.152500", "091221.160000", "091223.167500", "091225.177500", "091227.185000", "091229.192500", "091231.200000", "091233.210000", "091235.217500", "091237.225000", "091239.232500", "091241.240000", "091243.250000", "091245.257500", "091247.265000", "091249.272500", "091251.280000", "091253.290000", "091255.297500", "091257.305000", "091259.312500", "091301.320000", "091303.330000", "091305.337500", "091307.345000", "091309.352500", "091311.362500", "091313.370000", "091315.377500", "091317.385000", "091319.392500", "091321.402500", "091323.410000", "091325.417500", "091327.425000", "091329.432500", "091331.442500", "091333.450000", "091335.457500", "091337.465000", "091339.475000", "091341.482500", "091343.490000", "091345.497500", "091347.505000", "091349.515000", "091351.522500", "091353.530000", "091355.537500", "091357.545000", "091359.555000", "091401.562500", "091403.570000", "091405.577500", "091407.587500", "091409.595000", "091411.602500", "091413.610000", "091415.617500", "091417.627500", "091419.635000", "091421.642500", "091423.650000", "091425.657500", "091427.667500", "091429.675000", "091431.682500", "091433.690000", "091435.697500", "091437.707500", "091439.715000", "091441.722500", "091443.730000", "091445.740000", "091447.747500", "091449.755000", "091451.762500", "091453.770000", "091455.780000", "091457.787500", "091459.795000", "091501.802500"],
      "ContentTime": ["090045.171000", "090045.171000", "090045.187000", "090045.187000", "090045.187000", "090045.187000", "090045.187000", "090045.187000", "090045.187000", "090045.203000", "090045.203000", "090045.203000", "090045.203000", "090045.203000", "090045.203000", "090045.203000", "090045.218000", "090045.218000", "090045.218000", "090045.218000", "090045.218000", "090045.218000", "090125.156000", "090125.156000", "090125.156000", "090125.156000", "090125.156000", "090125.171000", "090125.171000", "090125.171000", "090125.171000", "090125.171000", "090125.171000", "090125.171000", "090125.187000", "090125.187000", "090125.187000", "090125.187000", "090125.187000", "090125.187000", "090125.187000", "090125.203000", "090205.156000", "090205.156000", "090205.156000", "090205.156000", "090205.156000", "090205.171000", "090205.171000", "090205.171000", "090205.171000", "090205.187000", "090205.187000", "090205.187000", "090205.187000", "090205.187000", "090205.187000", "090205.187000", "090205.203000", "090205.203000", "090205.203000", "090205.203000", "090245.156000", "090245.156000", "090245.156000", "090245.156000", "090245.156000", "090245.171000", "090245.171000", "090245.171000", "090245.171000", "090245.171000", "090245.171000", "090245.171000", "090245.187000", "090245.187000", "090245.187000", "090245.187000", "090245.203000", "090245.203000", "090245.203000", "090245.203000", "090325.156000", "090325.156000", "090325.156000", "090325.156000", "090325.171000", "090325.171000", "090325.171000", "090325.171000", "090325.171000", "090325.171000", "090325.171000", "090325.171000", "090325.187000", "090325.187000", "090325.187000", "090325.187000", "090325.187000", "090325.187000", "090325.187000", "090325.203000", "090405.156000", "090405.156000", "090405.156000", "090405.171000", "090405.171000", "090405.171000", "090405.171000", "090405.171000", "090405.187000", "090405.187000", "090405.187000", "090405.187000", "090405.187000", "090405.187000", "090405.203000", "090405.203000", "090405.203000", "090405.203000", "090405.203000", "090405.203000", "090445.156000", "090445.156000", "090445.156000", "090445.156000", "090445.156000", "090445.171000", "090445.171000", "090445.171000", "090445.171000", "090445.171000", "090445.171000", "090445.171000", "090445.187000", "090445.187000", "090445.187000", "090445.187000", "090445.187000", "090445.187000", "090445.187000", "090445.203000", "090525.156000", "090525.156000", "090525.156000", "090525.156000", "090525.156000", "090525.171000", "090525.171000", "090525.171000", "090525.171000", "090525.171000", "090525.171000", "090525.171000", "090525.187000", "090525.187000", "090525.187000", "090525.187000", "090525.187000", "090525.187000", "090525.187000", "090525.203000", "090605.156000", "090605.156000", "090605.156000", "090605.156000", "090605.156000", "090605.171000", "090605.171000", "090605.171000", "090605.171000", "090605.187000", "090605.187000", "090605.187000", "090605.187000", "090605.187000", "090605.187000", "090605.187000", "090605.203000", "090605.203000", "090605.203000", "090605.203000", "090645.156000", "090645.156000", "090645.156000", "090645.171000", "090645.171000", "090645.171000", "090645.171000", "090645.171000", "090645.171000", "090645.171000", "090645.187000", "090645.187000", "090645.187000", "090645.203000", "090645.203000", "090645.203000", "090645.203000", "090645.203000", "090645.203000", "090645.218000", "090725.156000", "090725.156000", "090725.156000", "090725.156000", "090725.156000", "090725.171000", "090725.171000", "090725.171000", "090725.171000", "090725.171000", "090725.171000", "090725.171000", "090725.187000", "090725.187000", "090725.187000", "090725.187000", "090725.203000", "090725.203000", "090725.203000", "090725.203000", "090805.156000", "090805.156000", "090805.156000", "090805.156000", "090805.171000", "090805.171000", "090805.171000", "090805.171000", "090805.171000", "090805.171000", "090805.187000", "090805.187000", "090805.187000", "090805.187000", "090805.187000", "090805.187000", "090805.203000", "090805.203000", "090805.203000", "090805.203000", "090825.156000", "090825.156000", "090825.156000", "090825.156000", "090825.171000", "090825.171000", "090825.171000", "090825.171000", "090825.171000", "090825.171000", "090905.156000", "090905.156000", "090905.156000", "090905.156000", "090905.156000", "090905.171000", "090905.171000", "090905.171000", "090905.171000", "090905.171000", "090905.171000", "090905.171000", "090905.187000", "090905.187000", "090905.187000", "090905.187000", "090905.187000", "090905.187000", "090905.187000", "090905.203000", "090945.156000", "090945.156000", "090945.156000", "090945.156000", "090945.171000", "090945.171000", "090945.171000", "090945.171000", "090945.171000", "090945.171000", "090945.171000", "090945.187000", "090945.187000", "090945.187000", "090945.187000", "090945.187000", "090945.187000", "090945.187000", "090945.203000", "090945.203000", "091025.156000", "091025.156000", "091025.156000", "091025.156000", "091025.171000", "091025.171000", "091025.171000", "091025.171000", "091025.171000", "091025.171000", "091025.171000", "091025.187000", "091025.187000", "091025.187000", "091025.187000", "091025.187000", "091025.187000", "091025.187000", "091025.187000", "091025.203000", "091105.156000", "091105.156000", "091105.156000", "091105.156000", "091105.156000", "091105.171000", "091105.171000", "091105.171000", "091105.171000", "091105.171000", "091105.171000", "091105.171000", "091105.187000", "091105.187000", "091105.187000", "091105.187000", "091105.187000", "091105.187000", "091105.187000", "091105.203000", "091145.156000", "091145.156000", "091145.156000", "091145.156000", "091145.156000", "091145.171000", "091145.171000", "091145.171000", "091145.171000", "091145.171000", "091145.171000", "091145.171000", "091145.187000", "091145.187000", "091145.187000", "091145.187000", "091145.203000", "091145.203000", "091145.203000", "091145.203000", "091225.156000", "091225.156000", "091225.156000", "091225.156000", "091225.156000", "091225.171000", "091225.171000", "091225.171000", "091225.171000", "091225.171000", "091225.171000", "091225.171000", "091225.187000", "091225.187000", "091225.187000", "091225.187000", "091225.187000", "091225.187000", "091225.187000", "091225.203000", "091305.156000", "091305.156000", "091305.156000", "091305.156000", "091305.171000", "091305.171000", "091305.171000", "091305.171000", "091305.171000", "091305.171000", "091305.171000", "091305.187000", "091305.187000", "091305.187000", "091305.187000", "091305.187000", "091305.187000", "091305.187000", "091305.203000", "091305.203000", "091345.156000", "091345.156000", "091345.156000", "091345.156000", "091345.171000", "091345.171000", "091345.171000", "091345.171000", "091345.171000", "091345.171000", "091345.171000", "091345.187000", "091345.187000", "091345.187000", "091345.187000", "091345.187000", "091345.187000", "091345.203000", "091345.203000", "091345.218000", "091425.156000", "091425.171000", "091425.171000", "091425.171000", "091425.187000", "091425.187000", "091425.187000", "091425.187000", "091425.203000", "091425.203000", "091425.203000", "091425.203000", "091425.203000", "091425.203000", "091425.203000", "091425.218000", "091425.218000", "091425.218000", "091425.218000", "091425.218000", "091459.546000", "091459.546000", "091459.546000", "091459.546000", "091459.562000", "091459.562000", "091459.562000", "091459.562000", "091459.562000", "091459.562000", "091459.562000", "091459.578000", "091459.578000", "091459.578000", "091459.578000", "091459.593000", "091459.593000", "091459.593000"],
