{
  "AcquisitionMatrixPE": 72,
  "AcquisitionNumber": 1,
  "AcquisitionTime": "10:06:47.515000",
  "BandwidthPerPixelPhaseEncode": 28.935,
  "BaseResolution": 72,
  "CoilString": "C:HEA;HEP",
  "ConversionSoftware": "dcm2niix",
  "ConversionSoftwareVersion": "v1.0.20190410  GCC6.3.0",
  "DerivedVendorReportedEchoSpacing": 0.000480003,
  "DeviceSerialNumber": "35149",
  "DwellTime": 2.9e-06,
  "EchoTime": 0.025,
  "EffectiveEchoSpacing": 0.000480003,
  "FlipAngle": 75,
  "ImageOrientationPatientDICOM": [0.997919, 0.0417256, 0.0491582, -0.0119515, 0.868876, -0.494886],
  "ImageType": [
    "ORIGINAL",
    "PRIMARY",
    "M",
    "ND",
    "MOSAIC"
],
  "ImagingFrequency": 123.254,
  "InPlanePhaseEncodingDirectionDICOM": "COL",
  "InstitutionAddress": "Street_StreetNo_Rehovot_91E162_District_IL_ZIP",
  "InstitutionName": "Weizmann",
  "InstitutionalDepartmentName": "Department",
  "MRAcquisitionType": "2D",
  "MagneticFieldStrength": 3,
  "Manufacturer": "Siemens",
  "ManufacturersModelName": "TrioTim",
  "Modality": "MR",
  "PartialFourier": 1,
  "PatientPosition": "HFS",
  "PercentPhaseFOV": 100,
  "PhaseEncodingDirection": "j-",
  "PhaseEncodingSteps": 72,
  "PhaseResolution": 1,
  "PixelBandwidth": 2395,
  "ProcedureStepDescription": "Weizmann_Sobel",
  "ProtocolName": "exp1_30_to_AC-PC",
  "PulseSequenceDetails": "%SiemensSeq%_ep2d_pace",
  "ReceiveCoilName": "HeadMatrix",
  "ReconMatrixPE": 72,
  "RepetitionTime": 2,
  "SAR": 0.124054,
  "ScanOptions": "FS",
  "ScanningSequence": "EP",
  "SequenceName": "_epfid2d1_72",
  "SequenceVariant": "SK",
  "SeriesDescription": "exp1_30_to_AC-PC",
  "SeriesNumber": 3,
  "ShimSetting": [2359, 9391, -5394, 491, 262, -646, 61, 90],
  "SliceThickness": 3.7,
  "SliceTiming": [0.9925, 0, 1.0525, 0.0575, 1.11, 0.1175, 1.1675, 0.175, 1.2275, 0.2325, 1.285, 0.2925, 1.345, 0.35, 1.4025, 0.4075, 1.46, 0.4675, 1.52, 0.525, 1.5775, 0.585, 1.635, 0.6425, 1.695, 0.7, 1.7525, 0.76, 1.8125, 0.8175, 1.87, 0.875, 1.9275, 0.935],
  "SoftwareVersions": "syngo_MR_B17",
  "SpacingBetweenSlices": 3.7,
  "StationName": "MRC35149",
  "TaskName": "blank",
  "TotalReadoutTime": 0.0340802,
  "TxRefAmp": 341.341,
  "VendorReportedEchoSpacing": 0.00048,
  "dcmmeta_affine": [
    [-2.9937572479248047, -0.035854581743478775, 0.23443856835365295, 107.85104370117188],
    [-0.12517671287059784, 2.606627941131592, -1.8250923156738281, -46.88602828979492],
    [0.14747464656829834, 1.484656572341919, 3.209996223449707, -86.8355484008789],
    [0.0, 0.0, 0.0, 1.0]
],
  "dcmmeta_reorient_transform": [
    [0.0, -1.0, 0.0, 71.0],
    [1.0, 0.0, 0.0, 0.0],
    [0.0, 0.0, 1.0, 0.0],
    [0.0, 0.0, 0.0, 1.0]
],
  "dcmmeta_shape": [72, 72, 34, 450],
  "dcmmeta_slice_dim": 2,
  "dcmmeta_version": 0.6,
  "global": {
    "const": {
      "AcquisitionMatrix": [72, 0, 0, 72],
      "AngioFlag": "N",
      "BitsAllocated": 16,
      "BitsStored": 12,
      "Columns": 432,
      "EchoNumbers": 1,
      "EchoTime": 25.0,
      "EchoTrainLength": 1,
      "FlipAngle": 75.0,
      "HighBit": 11,
      "ImageOrientationPatient": [0.99791905808121, 0.0417255711381, 0.04915821631735, -0.0119515268116, 0.86887598022186, -0.4948855342404],
      "ImagePositionPatient": [-637.7278343577, -629.90939344654, 259.26781972957],
      "ImageType": [
        "ORIGINAL",
        "PRIMARY",
        "M",
        "ND",
        "MOSAIC"
],
      "ImagedNucleus": "1H",
      "ImagingFrequency": 123.254319,
      "InPlanePhaseEncodingDirection": "COL",
      "MRAcquisitionType": "2D",
      "MagneticFieldStrength": 3.0,
      "Manufacturer": "SIEMENS",
      "ManufacturerModelName": "TrioTim",
      "Modality": "MR",
      "NumberOfAverages": 1.0,
      "NumberOfPhaseEncodingSteps": 72,
      "PercentPhaseFieldOfView": 100.0,
      "PercentSampling": 100.0,
      "PerformedProcedureStepStartTime": "095342.375000",
      "PhotometricInterpretation": "MONOCHROME2",
      "PixelBandwidth": 2395.0,
      "PixelRepresentation": 0,
      "PixelSpacing": [3.0, 3.0],
      "ProtocolName": "exp1_30_to_AC-PC",
      "RepetitionTime": 2000.0,
      "Rows": 432,
      "SAR": 0.12405379274217,
      "SamplesPerPixel": 1,
      "ScanOptions": "FS",
      "ScanningSequence": "EP",
      "SequenceName": "*epfid2d1_72",
      "SequenceVariant": "SK",
      "SeriesDescription": "exp1_30_to_AC-PC",
      "SeriesNumber": 3,
      "SeriesTime": "100736.875000",
      "SliceLocation": -45.374602411034,
      "SliceThickness": 3.7000000476837,
      "SmallestImagePixelValue": 0,
      "SoftwareVersions": "syngo MR B17",
      "SpacingBetweenSlices": 3.6999999102647,
      "SpecificCharacterSet": "ISO_IR 100",
      "StudyID": "1",
      "StudyTime": "095342.312000",
      "TransmitCoilName": "Body",
      "VariableFlipAngleFlag": "N",
      "WindowCenterWidthExplanation": "Algo1",
      "dBdt": 0.0},
    "slices": {}
  },
  "time": {
    "samples": {
      "AcquisitionNumber": [1, 2, 3, 4, 5, 6, 7, 8, 9, 10, 11, 12, 13, 14, 15, 16, 17, 18, 19, 20, 21, 22, 23, 24, 25, 26, 27, 28, 29, 30, 31, 32, 33, 34, 35, 36, 37, 38, 39, 40, 41, 42, 43, 44, 45, 46, 47, 48, 49, 50, 51, 52, 53, 54, 55, 56, 57, 58, 59, 60, 61, 62, 63, 64, 65, 66, 67, 68, 69, 70, 71, 72, 73, 74, 75, 76, 77, 78, 79, 80, 81, 82, 83, 84, 85, 86, 87, 88, 89, 90, 91, 92, 93, 94, 95, 96, 97, 98, 99, 100, 101, 102, 103, 104, 105, 106, 107, 108, 109, 110, 111, 112, 113, 114, 115, 116, 117, 118, 119, 120, 121, 122, 123, 124, 125, 126, 127, 128, 129, 130, 131, 132, 133, 134, 135, 136, 137, 138, 139, 140, 141, 142, 143, 144, 145, 146, 147, 148, 149, 150, 151, 152, 153, 154, 155, 156, 157, 158, 159, 160, 161, 162, 163, 164, 165, 166, 167, 168, 169, 170, 171, 172, 173, 174, 175, 176, 177, 178, 179, 180, 181, 182, 183, 184, 185, 186, 187, 188, 189, 190, 191, 192, 193, 194, 195, 196, 197, 198, 199, 200, 201, 202, 203, 204, 205, 206, 207, 208, 209, 210, 211, 212, 213, 214, 215, 216, 217, 218, 219, 220, 221, 222, 223, 224, 225, 226, 227, 228, 229, 230, 231, 232, 233, 234, 235, 236, 237, 238, 239, 240, 241, 242, 243, 244, 245, 246, 247, 248, 249, 250, 251, 252, 253, 254, 255, 256, 257, 258, 259, 260, 261, 262, 263, 264, 265, 266, 267, 268, 269, 270, 271, 272, 273, 274, 275, 276, 277, 278, 279, 280, 281, 282, 283, 284, 285, 286, 287, 288, 289, 290, 291, 292, 293, 294, 295, 296, 297, 298, 299, 300, 301, 302, 303, 304, 305, 306, 307, 308, 309, 310, 311, 312, 313, 314, 315, 316, 317, 318, 319, 320, 321, 322, 323, 324, 325, 326, 327, 328, 329, 330, 331, 332, 333, 334, 335, 336, 337, 338, 339, 340, 341, 342, 343, 344, 345, 346, 347, 348, 349, 350, 351, 352, 353, 354, 355, 356, 357, 358, 359, 360, 361, 362, 363, 364, 365, 366, 367, 368, 369, 370, 371, 372, 373, 374, 375, 376, 377, 378, 379, 380, 381, 382, 383, 384, 385, 386, 387, 388, 389, 390, 391, 392, 393, 394, 395, 396, 397, 398, 399, 400, 401, 402, 403, 404, 405, 406, 407, 408, 409, 410, 411, 412, 413, 414, 415, 416, 417, 418, 419, 420, 421, 422, 423, 424, 425, 426, 427, 428, 429, 430, 431, 432, 433, 434, 435, 436, 437, 438, 439, 440, 441, 442, 443, 444, 445, 446, 447, 448, 449, 450],
      "AcquisitionTime": ["100647.515000", "100649.522500", "100651.532500", "100653.540000", "100655.547500", "100657.555000", "100659.565000", "100701.572500", "100703.580000", "100705.587500", "100707.595000", "100709.605000", "100711.612500", "100713.620000", "100715.627500", "100717.635000", "100719.645000", "100721.652500", "100723.660000", "100725.667500", "100727.677500", "100729.685000", "100731.692500", "100733.700000", "100735.707500", "100737.717500", "100739.725000", "100741.732500", "100743.740000", "100745.747500", "100747.757500", "100749.765000", "100751.772500", "100753.780000", "100755.787500", "100757.797500", "100759.805000", "100801.812500", "100803.820000", "100805.830000", "100807.837500", "100809.845000", "100811.852500", "100813.860000", "100815.870000", "100817.877500", "100819.885000", "100821.892500", "100823.900000", "100825.910000", "100827.917500", "100829.925000", "100831.932500", "100833.942500", "100835.950000", "100837.957500", "100839.965000", "100841.972500", "100843.982500", "100845.990000", "100847.997500", "100850.005000", "100852.012500", "100854.022500", "100856.030000", "100858.037500", "100900.045000", "100902.055000", "100904.062500", "100906.070000", "100908.077500", "100910.085000", "100912.095000", "100914.102500", "100916.110000", "100918.117500", "100920.125000", "100922.135000", "100924.142500", "100926.150000", "100928.157500", "100930.165000", "100932.175000", "100934.182500", "100936.190000", "100938.197500", "100940.207500", "100942.215000", "100944.222500", "100946.230000", "100948.237500", "100950.247500", "100952.255000", "100954.262500", "100956.270000", "100958.277500", "101000.287500", "101002.295000", "101004.302500", "101006.310000", "101008.320000", "101010.327500", "101012.335000", "101014.342500", "101016.350000", "101018.360000", "101020.367500", "101022.375000", "101024.382500", "101026.390000", "101028.400000", "101030.407500", "101032.415000", "101034.422500", "101036.432500", "101038.440000", "101040.447500", "101042.455000", "101044.462500", "101046.472500", "101048.480000", "101050.487500", "101052.495000", "101054.502500", "101056.512500", "101058.520000", "101100.527500", "101102.535000", "101104.542500", "101106.552500", "101108.560000", "101110.567500", "101112.575000", "101114.585000", "101116.592500", "101118.600000", "101120.607500", "101122.615000", "101124.625000", "101126.632500", "101128.640000", "101130.647500", "101132.655000", "101134.665000", "101136.672500", "101138.680000", "101140.687500", "101142.697500", "101144.705000", "101146.712500", "101148.720000", "101150.727500", "101152.737500", "101154.745000", "101156.752500", "101158.760000", "101200.767500", "101202.777500", "101204.785000", "101206.792500", "101208.800000", "101210.810000", "101212.817500", "101214.825000", "101216.832500", "101218.840000", "101220.850000", "101222.857500", "101224.865000", "101226.872500", "101228.880000", "101230.890000", "101232.897500", "101234.905000", "101236.912500", "101238.922500", "101240.930000", "101242.937500", "101244.945000", "101246.952500", "101248.962500", "101250.970000", "101252.977500", "101254.985000", "101256.992500", "101259.002500", "101301.010000", "101303.017500", "101305.025000", "101307.032500", "101309.042500", "101311.050000", "101313.057500", "101315.065000", "101317.075000", "101319.082500", "101321.090000", "101323.097500", "101325.105000", "101327.115000", "101329.122500", "101331.130000", "101333.137500", "101335.145000", "101337.155000", "101339.162500", "101341.170000", "101343.177500", "101345.187500", "101347.195000", "101349.202500", "101351.210000", "101353.217500", "101355.227500", "101357.235000", "101359.242500", "101401.250000", "101403.257500", "101405.267500", "101407.275000", "101409.282500", "101411.290000", "101413.300000", "101415.307500", "101417.315000", "101419.322500", "101421.330000", "101423.340000", "101425.347500", "101427.355000", "101429.362500", "101431.370000", "101433.380000", "101435.387500", "101437.395000", "101439.402500", "101441.410000", "101443.420000", "101445.427500", "101447.435000", "101449.442500", "101451.452500", "101453.460000", "101455.467500", "101457.475000", "101459.482500", "101501.492500", "101503.500000", "101505.507500", "101507.515000", "101509.522500", "101511.532500", "101513.540000", "101515.547500", "101517.555000", "101519.565000", "101521.572500", "101523.580000", "101525.587500", "101527.595000", "101529.605000", "101531.612500", "101533.620000", "101535.627500", "101537.635000", "101539.645000", "101541.652500", "101543.660000", "101545.667500", "101547.677500", "101549.685000", "101551.692500", "101553.700000", "101555.707500", "101557.717500", "101559.725000", "101601.732500", "101603.740000", "101605.747500", "101607.757500", "101609.765000", "101611.772500", "101613.780000", "101615.787500", "101617.797500", "101619.805000", "101621.812500", "101623.820000", "101625.830000", "101627.837500", "101629.845000", "101631.852500", "101633.860000", "101635.870000", "101637.877500", "101639.885000", "101641.892500", "101643.900000", "101645.910000", "101647.917500", "101649.925000", "101651.932500", "101653.942500", "101655.950000", "101657.957500", "101659.965000", "101701.972500", "101703.982500", "101705.990000", "101707.997500", "101710.005000", "101712.012500", "101714.022500", "101716.030000", "101718.037500", "101720.045000", "101722.055000", "101724.062500", "101726.070000", "101728.077500", "101730.085000", "101732.095000", "101734.102500", "101736.110000", "101738.117500", "101740.125000", "101742.135000", "101744.142500", "101746.150000", "101748.157500", "101750.165000", "101752.175000", "101754.182500", "101756.190000", "101758.197500", "101800.207500", "101802.215000", "101804.222500", "101806.230000", "101808.237500", "101810.247500", "101812.255000", "101814.262500", "101816.270000", "101818.277500", "101820.287500", "101822.295000", "101824.302500", "101826.310000", "101828.320000", "101830.327500", "101832.335000", "101834.342500", "101836.350000", "101838.360000", "101840.367500", "101842.375000", "101844.382500", "101846.390000", "101848.400000", "101850.407500", "101852.415000", "101854.422500", "101856.432500", "101858.440000", "101900.447500", "101902.455000", "101904.462500", "101906.472500", "101908.480000", "101910.487500", "101912.495000", "101914.502500", "101916.512500", "101918.520000", "101920.527500", "101922.535000", "101924.542500", "101926.552500", "101928.560000", "101930.567500", "101932.575000", "101934.585000", "101936.592500", "101938.600000", "101940.607500", "101942.615000", "101944.625000", "101946.632500", "101948.640000", "101950.647500", "101952.655000", "101954.665000", "101956.672500", "101958.680000", "102000.687500", "102002.697500", "102004.705000", "102006.712500", "102008.720000", "102010.727500", "102012.737500", "102014.745000", "102016.752500", "102018.760000", "102020.767500", "102022.777500", "102024.785000", "102026.792500", "102028.800000", "102030.810000", "102032.817500", "102034.825000", "102036.832500", "102038.840000", "102040.850000", "102042.857500", "102044.865000", "102046.872500", "102048.880000", "102050.890000", "102052.897500", "102054.905000", "102056.912500", "102058.922500", "102100.930000", "102102.937500", "102104.945000", "102106.952500", "102108.962500", "102110.970000", "102112.977500", "102114.985000", "102116.992500", "102119.002500", "102121.010000", "102123.017500", "102125.025000", "102127.032500", "102129.042500", "102131.050000", "102133.057500", "102135.065000", "102137.075000", "102139.082500", "102141.090000", "102143.097500", "102145.105000", "102147.115000", "102149.122500"],
      "ContentTime": ["100736.890000", "100736.890000", "100736.906000", "100736.906000", "100736.906000", "100736.906000", "100736.906000", "100736.921000", "100736.921000", "100736.921000", "100736.921000", "100736.921000", "100736.921000", "100736.921000", "100736.937000", "100736.937000", "100736.937000", "100736.937000", "100736.953000", "100736.953000", "100736.953000", "100736.953000", "100736.953000", "100736.953000", "100816.875000", "100816.875000", "100816.875000", "100816.875000", "100816.875000", "100816.875000", "100816.875000", "100816.890000", "100816.890000", "100816.890000", "100816.890000", "100816.890000", "100816.906000", "100816.906000", "100816.906000", "100816.906000", "100816.906000", "100816.906000", "100816.906000", "100816.921000", "100856.875000", "100856.875000", "100856.875000", "100856.875000", "100856.875000", "100856.890000", "100856.890000", "100856.890000", "100856.890000", "100856.890000", "100856.890000", "100856.906000", "100856.906000", "100856.906000", "100856.906000", "100856.906000", "100856.921000", "100856.921000", "100856.921000", "100856.921000", "100936.859000", "100936.875000", "100936.875000", "100936.875000", "100936.875000", "100936.875000", "100936.875000", "100936.890000", "100936.890000", "100936.890000", "100936.890000", "100936.890000", "100936.890000", "100936.890000", "100936.906000", "100936.906000", "100936.906000", "100936.906000", "100936.906000", "100936.906000", "101016.875000", "101016.875000", "101016.875000", "101016.875000", "101016.875000", "101016.890000", "101016.890000", "101016.890000", "101016.890000", "101016.890000", "101016.906000", "101016.906000", "101016.906000", "101016.906000", "101016.906000", "101016.906000", "101016.906000", "101016.921000", "101016.921000", "101016.921000", "101056.875000", "101056.875000", "101056.875000", "101056.890000", "101056.890000", "101056.890000", "101056.890000", "101056.890000", "101056.890000", "101056.890000", "101056.906000", "101056.906000", "101056.906000", "101056.906000", "101056.906000", "101056.906000", "101056.906000", "101056.921000", "101056.921000", "101056.921000", "101136.875000", "101136.875000", "101136.875000", "101136.875000", "101136.875000", "101136.890000", "101136.890000", "101136.890000", "101136.890000", "101136.890000", "101136.890000", "101136.890000", "101136.906000", "101136.906000", "101136.906000", "101136.906000", "101136.906000", "101136.906000", "101136.906000", "101136.921000", "101216.875000", "101216.875000", "101216.875000", "101216.875000", "101216.875000", "101216.875000", "101216.875000", "101216.890000", "101216.890000", "101216.890000", "101216.890000", "101216.921000", "101216.921000", "101216.921000", "101216.921000", "101216.937000", "101216.937000", "101216.937000", "101216.937000", "101216.953000", "101256.875000", "101256.875000", "101256.875000", "101256.875000", "101256.875000", "101256.875000", "101256.875000", "101256.890000", "101256.890000", "101256.890000", "101256.890000", "101256.906000", "101256.906000", "101256.906000", "101256.906000", "101256.906000", "101256.906000", "101256.906000", "101256.921000", "101256.921000", "101338.031000", "101338.031000", "101338.031000", "101338.046000", "101338.046000", "101338.046000", "101338.046000", "101338.046000", "101338.046000", "101338.046000", "101338.062000", "101338.062000", "101338.062000", "101338.062000", "101338.062000", "101338.062000", "101338.062000", "101338.078000", "101338.078000", "101338.078000", "101416.875000", "101416.875000", "101416.875000", "101416.875000", "101416.875000", "101416.875000", "101416.875000", "101416.890000", "101416.890000", "101416.890000", "101416.890000", "101416.890000", "101416.890000", "101416.890000", "101416.890000", "101416.906000", "101416.906000", "101416.906000", "101416.906000", "101416.906000", "101456.875000", "101456.875000", "101456.875000", "101456.875000", "101456.875000", "101456.875000", "101456.875000", "101456.890000", "101456.890000", "101456.890000", "101456.890000", "101456.890000", "101456.890000", "101456.890000", "101456.906000", "101456.906000", "101456.906000", "101456.906000", "101456.906000", "101456.921000", "101536.875000", "101536.875000", "101536.875000", "101536.875000", "101536.875000", "101536.890000", "101536.890000", "101536.890000", "101536.890000", "101536.890000", "101536.890000", "101536.906000", "101536.906000", "101536.906000", "101536.906000", "101536.906000", "101536.906000", "101536.906000", "101536.921000", "101536.921000", "101616.875000", "101616.875000", "101616.875000", "101616.875000", "101616.890000", "101616.890000", "101616.890000", "101616.890000", "101616.890000", "101616.906000", "101616.906000", "101616.906000", "101616.906000", "101616.906000", "101616.906000", "101616.921000", "101616.921000", "101616.921000", "101616.921000", "101616.921000", "101656.875000", "101656.875000", "101656.875000", "101656.875000", "101656.875000", "101656.875000", "101656.875000", "101656.890000", "101656.890000", "101656.890000", "101656.890000", "101656.906000", "101656.906000", "101656.906000", "101656.906000", "101656.906000", "101656.906000", "101656.906000", "101656.906000", "101656.921000", "101736.875000", "101736.875000", "101736.875000", "101736.875000", "101736.875000", "101736.875000", "101736.875000", "101736.890000", "101736.890000", "101736.890000", "101736.890000", "101736.890000", "101736.890000", "101736.890000", "101736.906000", "101736.906000", "101736.906000", "101736.906000", "101736.906000", "101736.906000", "101816.875000", "101816.875000", "101816.875000", "101816.875000", "101816.875000", "101816.875000", "101816.875000", "101816.890000", "101816.890000", "101816.890000", "101816.890000", "101816.890000", "101816.890000", "101816.890000", "101816.890000", "101816.906000", "101816.906000", "101816.906000", "101816.906000", "101816.906000", "101856.875000", "101856.875000", "101856.875000", "101856.875000", "101856.875000", "101856.875000", "101856.875000", "101856.890000", "101856.890000", "101856.890000", "101856.890000", "101856.890000", "101856.890000", "101856.890000", "101856.890000", "101856.906000", "101856.906000", "101856.906000", "101856.906000", "101856.906000", "101936.875000", "101936.875000", "101936.875000", "101936.875000", "101936.875000", "101936.875000", "101936.875000", "101936.890000", "101936.890000", "101936.890000", "101936.890000", "101936.890000", "101936.906000", "101936.906000", "101936.906000", "101936.906000", "101936.906000", "101936.906000", "101936.906000", "101936.921000", "102016.875000", "102016.875000", "102016.875000", "102016.875000", "102016.875000", "102016.890000", "102016.890000", "102016.890000", "102016.906000", "102016.906000", "102016.906000", "102016.906000", "102016.906000", "102016.906000", "102016.921000", "102016.921000", "102016.921000", "102016.921000", "102016.921000", "102016.921000", "102057.234000", "102057.234000", "102057.234000", "102057.234000", "102057.250000", "102057.250000", "102057.250000", "102057.250000", "102057.250000", "102057.250000", "102057.250000", "102057.265000", "102057.265000", "102057.265000", "102057.265000", "102057.265000", "102057.265000", "102057.265000", "102057.281000", "102057.281000", "102136.875000", "102136.875000", "102136.875000", "102136.875000", "102136.875000", "102136.875000", "102136.875000", "102136.890000", "102136.890000", "102136.890000", "102136.890000", "102136.890000", "102136.890000", "102136.890000", "102136.906000", "102136.906000", "102136.921000", "102136.921000", "102136.921000", "102136.921000", "102147.671000", "102147.703000", "102147.703000", "102147.703000", "102147.718000", "102147.718000"],
