{
  "AcquisitionMatrixPE": 72,
  "AcquisitionNumber": 1,
  "AcquisitionTime": "10:27:54.475000",
  "BandwidthPerPixelPhaseEncode": 28.935,
  "BaseResolution": 72,
  "CoilString": "C:HEA;HEP",
  "ConversionSoftware": "dcm2niix",
  "ConversionSoftwareVersion": "v1.0.20190410  GCC6.3.0",
  "DerivedVendorReportedEchoSpacing": 0.000480003,
  "DeviceSerialNumber": "35149",
  "DwellTime": 2.9e-06,
  "EchoTime": 0.025,
  "EffectiveEchoSpacing": 0.000480003,
  "FlipAngle": 75,
  "ImageOrientationPatientDICOM": [0.997919, 0.0417256, 0.0491582, -0.0119515, 0.868876, -0.494886],
  "ImageType": [
    "ORIGINAL",
    "PRIMARY",
    "M",
    "ND",
    "MOSAIC"
],
  "ImagingFrequency": 123.254,
  "InPlanePhaseEncodingDirectionDICOM": "COL",
  "InstitutionAddress": "Street_StreetNo_Rehovot_91E162_District_IL_ZIP",
  "InstitutionName": "Weizmann",
  "InstitutionalDepartmentName": "Department",
  "MRAcquisitionType": "2D",
  "MagneticFieldStrength": 3,
  "Manufacturer": "Siemens",
  "ManufacturersModelName": "TrioTim",
  "Modality": "MR",
  "PartialFourier": 1,
  "PatientPosition": "HFS",
  "PercentPhaseFOV": 100,
  "PhaseEncodingDirection": "j-",
  "PhaseEncodingSteps": 72,
  "PhaseResolution": 1,
  "PixelBandwidth": 2395,
  "ProcedureStepDescription": "Weizmann_Sobel",
  "ProtocolName": "exp2_30_to_AC-PC",
  "PulseSequenceDetails": "%SiemensSeq%_ep2d_pace",
  "ReceiveCoilName": "HeadMatrix",
  "ReconMatrixPE": 72,
  "RepetitionTime": 2,
  "SAR": 0.124054,
  "ScanOptions": "FS",
  "ScanningSequence": "EP",
  "SequenceName": "_epfid2d1_72",
  "SequenceVariant": "SK",
  "SeriesDescription": "exp2_30_to_AC-PC",
  "SeriesNumber": 5,
  "ShimSetting": [2359, 9391, -5394, 491, 262, -646, 61, 90],
  "SliceThickness": 3.7,
  "SliceTiming": [0.995, 0, 1.0525, 0.06, 1.11, 0.1175, 1.17, 0.175, 1.2275, 0.235, 1.2875, 0.2925, 1.345, 0.35, 1.4025, 0.41, 1.4625, 0.4675, 1.52, 0.5275, 1.5775, 0.585, 1.6375, 0.6425, 1.695, 0.7025, 1.755, 0.76, 1.8125, 0.8175, 1.87, 0.8775, 1.93, 0.935],
  "SoftwareVersions": "syngo_MR_B17",
  "SpacingBetweenSlices": 3.7,
  "StationName": "MRC35149",
  "TaskName": "bodyodor",
  "TotalReadoutTime": 0.0340802,
  "TxRefAmp": 341.341,
  "VendorReportedEchoSpacing": 0.00048,
  "dcmmeta_affine": [
    [-2.9937572479248047, -0.035854581743478775, 0.23443856835365295, 107.85104370117188],
    [-0.12517671287059784, 2.606627941131592, -1.8250923156738281, -46.88602828979492],
    [0.14747464656829834, 1.484656572341919, 3.209996223449707, -86.8355484008789],
    [0.0, 0.0, 0.0, 1.0]
],
  "dcmmeta_reorient_transform": [
    [0.0, -1.0, 0.0, 71.0],
    [1.0, 0.0, 0.0, 0.0],
    [0.0, 0.0, 1.0, 0.0],
    [0.0, 0.0, 0.0, 1.0]
],
  "dcmmeta_shape": [72, 72, 34, 450],
  "dcmmeta_slice_dim": 2,
  "dcmmeta_version": 0.6,
  "global": {
    "const": {
      "AcquisitionMatrix": [72, 0, 0, 72],
      "AngioFlag": "N",
      "BitsAllocated": 16,
      "BitsStored": 12,
      "Columns": 432,
      "EchoNumbers": 1,
      "EchoTime": 25.0,
      "EchoTrainLength": 1,
      "FlipAngle": 75.0,
      "HighBit": 11,
      "ImageOrientationPatient": [0.99791905808121, 0.0417255711381, 0.04915821631735, -0.0119515268116, 0.86887598022186, -0.4948855342404],
      "ImagePositionPatient": [-637.7278343577, -629.90939344654, 259.26781972957],
      "ImageType": [
        "ORIGINAL",
        "PRIMARY",
        "M",
        "ND",
        "MOSAIC"
],
      "ImagedNucleus": "1H",
      "ImagingFrequency": 123.254319,
      "InPlanePhaseEncodingDirection": "COL",
      "MRAcquisitionType": "2D",
      "MagneticFieldStrength": 3.0,
      "Manufacturer": "SIEMENS",
      "ManufacturerModelName": "TrioTim",
      "Modality": "MR",
      "NumberOfAverages": 1.0,
      "NumberOfPhaseEncodingSteps": 72,
      "PercentPhaseFieldOfView": 100.0,
      "PercentSampling": 100.0,
      "PerformedProcedureStepStartTime": "095342.375000",
      "PhotometricInterpretation": "MONOCHROME2",
      "PixelBandwidth": 2395.0,
      "PixelRepresentation": 0,
      "PixelSpacing": [3.0, 3.0],
      "ProtocolName": "exp2_30_to_AC-PC",
      "RepetitionTime": 2000.0,
      "Rows": 432,
      "SAR": 0.12405379274217,
      "SamplesPerPixel": 1,
      "ScanOptions": "FS",
      "ScanningSequence": "EP",
      "SequenceName": "*epfid2d1_72",
      "SequenceVariant": "SK",
      "SeriesDescription": "exp2_30_to_AC-PC",
      "SeriesNumber": 5,
      "SeriesTime": "102841.265000",
      "SliceLocation": -45.374602411034,
      "SliceThickness": 3.7000000476837,
      "SmallestImagePixelValue": 0,
      "SoftwareVersions": "syngo MR B17",
      "SpacingBetweenSlices": 3.6999999102647,
      "SpecificCharacterSet": "ISO_IR 100",
      "StudyID": "1",
      "StudyTime": "095342.312000",
      "TransmitCoilName": "Body",
      "VariableFlipAngleFlag": "N",
      "WindowCenterWidthExplanation": "Algo1",
      "dBdt": 0.0},
    "slices": {}
  },
  "time": {
    "samples": {
      "AcquisitionNumber": [1, 2, 3, 4, 5, 6, 7, 8, 9, 10, 11, 12, 13, 14, 15, 16, 17, 18, 19, 20, 21, 22, 23, 24, 25, 26, 27, 28, 29, 30, 31, 32, 33, 34, 35, 36, 37, 38, 39, 40, 41, 42, 43, 44, 45, 46, 47, 48, 49, 50, 51, 52, 53, 54, 55, 56, 57, 58, 59, 60, 61, 62, 63, 64, 65, 66, 67, 68, 69, 70, 71, 72, 73, 74, 75, 76, 77, 78, 79, 80, 81, 82, 83, 84, 85, 86, 87, 88, 89, 90, 91, 92, 93, 94, 95, 96, 97, 98, 99, 100, 101, 102, 103, 104, 105, 106, 107, 108, 109, 110, 111, 112, 113, 114, 115, 116, 117, 118, 119, 120, 121, 122, 123, 124, 125, 126, 127, 128, 129, 130, 131, 132, 133, 134, 135, 136, 137, 138, 139, 140, 141, 142, 143, 144, 145, 146, 147, 148, 149, 150, 151, 152, 153, 154, 155, 156, 157, 158, 159, 160, 161, 162, 163, 164, 165, 166, 167, 168, 169, 170, 171, 172, 173, 174, 175, 176, 177, 178, 179, 180, 181, 182, 183, 184, 185, 186, 187, 188, 189, 190, 191, 192, 193, 194, 195, 196, 197, 198, 199, 200, 201, 202, 203, 204, 205, 206, 207, 208, 209, 210, 211, 212, 213, 214, 215, 216, 217, 218, 219, 220, 221, 222, 223, 224, 225, 226, 227, 228, 229, 230, 231, 232, 233, 234, 235, 236, 237, 238, 239, 240, 241, 242, 243, 244, 245, 246, 247, 248, 249, 250, 251, 252, 253, 254, 255, 256, 257, 258, 259, 260, 261, 262, 263, 264, 265, 266, 267, 268, 269, 270, 271, 272, 273, 274, 275, 276, 277, 278, 279, 280, 281, 282, 283, 284, 285, 286, 287, 288, 289, 290, 291, 292, 293, 294, 295, 296, 297, 298, 299, 300, 301, 302, 303, 304, 305, 306, 307, 308, 309, 310, 311, 312, 313, 314, 315, 316, 317, 318, 319, 320, 321, 322, 323, 324, 325, 326, 327, 328, 329, 330, 331, 332, 333, 334, 335, 336, 337, 338, 339, 340, 341, 342, 343, 344, 345, 346, 347, 348, 349, 350, 351, 352, 353, 354, 355, 356, 357, 358, 359, 360, 361, 362, 363, 364, 365, 366, 367, 368, 369, 370, 371, 372, 373, 374, 375, 376, 377, 378, 379, 380, 381, 382, 383, 384, 385, 386, 387, 388, 389, 390, 391, 392, 393, 394, 395, 396, 397, 398, 399, 400, 401, 402, 403, 404, 405, 406, 407, 408, 409, 410, 411, 412, 413, 414, 415, 416, 417, 418, 419, 420, 421, 422, 423, 424, 425, 426, 427, 428, 429, 430, 431, 432, 433, 434, 435, 436, 437, 438, 439, 440, 441, 442, 443, 444, 445, 446, 447, 448, 449, 450],
      "AcquisitionTime": ["102754.475000", "102756.482500", "102758.490000", "102800.497500", "102802.505000", "102804.515000", "102806.522500", "102808.530000", "102810.537500", "102812.547500", "102814.555000", "102816.562500", "102818.570000", "102820.577500", "102822.587500", "102824.595000", "102826.602500", "102828.610000", "102830.617500", "102832.627500", "102834.635000", "102836.642500", "102838.650000", "102840.660000", "102842.667500", "102844.675000", "102846.682500", "102848.690000", "102850.700000", "102852.707500", "102854.715000", "102856.722500", "102858.730000", "102900.740000", "102902.747500", "102904.755000", "102906.762500", "102908.772500", "102910.780000", "102912.787500", "102914.795000", "102916.802500", "102918.812500", "102920.820000", "102922.827500", "102924.835000", "102926.842500", "102928.852500", "102930.860000", "102932.867500", "102934.875000", "102936.882500", "102938.892500", "102940.900000", "102942.907500", "102944.915000", "102946.925000", "102948.932500", "102950.940000", "102952.947500", "102954.955000", "102956.965000", "102958.972500", "103000.980000", "103002.987500", "103004.995000", "103007.005000", "103009.012500", "103011.020000", "103013.027500", "103015.037500", "103017.045000", "103019.052500", "103021.060000", "103023.067500", "103025.077500", "103027.085000", "103029.092500", "103031.100000", "103033.107500", "103035.117500", "103037.125000", "103039.132500", "103041.140000", "103043.150000", "103045.157500", "103047.165000", "103049.172500", "103051.180000", "103053.190000", "103055.197500", "103057.205000", "103059.212500", "103101.220000", "103103.230000", "103105.237500", "103107.245000", "103109.252500", "103111.260000", "103113.270000", "103115.277500", "103117.285000", "103119.292500", "103121.302500", "103123.310000", "103125.317500", "103127.325000", "103129.332500", "103131.342500", "103133.350000", "103135.357500", "103137.365000", "103139.372500", "103141.382500", "103143.390000", "103145.397500", "103147.405000", "103149.415000", "103151.422500", "103153.430000", "103155.437500", "103157.445000", "103159.455000", "103201.462500", "103203.470000", "103205.477500", "103207.485000", "103209.495000", "103211.502500", "103213.510000", "103215.517500", "103217.527500", "103219.535000", "103221.542500", "103223.550000", "103225.557500", "103227.567500", "103229.575000", "103231.582500", "103233.590000", "103235.597500", "103237.607500", "103239.615000", "103241.622500", "103243.630000", "103245.637500", "103247.647500", "103249.655000", "103251.662500", "103253.670000", "103255.680000", "103257.687500", "103259.695000", "103301.702500", "103303.710000", "103305.720000", "103307.727500", "103309.735000", "103311.742500", "103313.750000", "103315.760000", "103317.767500", "103319.775000", "103321.782500", "103323.792500", "103325.800000", "103327.807500", "103329.815000", "103331.822500", "103333.832500", "103335.840000", "103337.847500", "103339.855000", "103341.862500", "103343.872500", "103345.880000", "103347.887500", "103349.895000", "103351.905000", "103353.912500", "103355.920000", "103357.927500", "103359.935000", "103401.945000", "103403.952500", "103405.960000", "103407.967500", "103409.975000", "103411.985000", "103413.992500", "103416.000000", "103418.007500", "103420.015000", "103422.025000", "103424.032500", "103426.040000", "103428.047500", "103430.057500", "103432.065000", "103434.072500", "103436.080000", "103438.087500", "103440.097500", "103442.105000", "103444.112500", "103446.120000", "103448.127500", "103450.137500", "103452.145000", "103454.152500", "103456.160000", "103458.170000", "103500.177500", "103502.185000", "103504.192500", "103506.200000", "103508.210000", "103510.217500", "103512.225000", "103514.232500", "103516.240000", "103518.250000", "103520.257500", "103522.265000", "103524.272500", "103526.282500", "103528.290000", "103530.297500", "103532.305000", "103534.312500", "103536.322500", "103538.330000", "103540.337500", "103542.345000", "103544.352500", "103546.362500", "103548.370000", "103550.377500", "103552.385000", "103554.392500", "103556.402500", "103558.410000", "103600.417500", "103602.425000", "103604.435000", "103606.442500", "103608.450000", "103610.457500", "103612.465000", "103614.475000", "103616.482500", "103618.490000", "103620.497500", "103622.505000", "103624.515000", "103626.522500", "103628.530000", "103630.537500", "103632.547500", "103634.555000", "103636.562500", "103638.570000", "103640.577500", "103642.587500", "103644.595000", "103646.602500", "103648.610000", "103650.617500", "103652.627500", "103654.635000", "103656.642500", "103658.650000", "103700.660000", "103702.667500", "103704.675000", "103706.682500", "103708.690000", "103710.700000", "103712.707500", "103714.715000", "103716.722500", "103718.730000", "103720.740000", "103722.747500", "103724.755000", "103726.762500", "103728.772500", "103730.780000", "103732.787500", "103734.795000", "103736.802500", "103738.812500", "103740.820000", "103742.827500", "103744.835000", "103746.842500", "103748.852500", "103750.860000", "103752.867500", "103754.875000", "103756.882500", "103758.892500", "103800.900000", "103802.907500", "103804.915000", "103806.925000", "103808.932500", "103810.940000", "103812.947500", "103814.955000", "103816.965000", "103818.972500", "103820.980000", "103822.987500", "103824.995000", "103827.005000", "103829.012500", "103831.020000", "103833.027500", "103835.037500", "103837.045000", "103839.052500", "103841.060000", "103843.067500", "103845.077500", "103847.085000", "103849.092500", "103851.100000", "103853.107500", "103855.117500", "103857.125000", "103859.132500", "103901.140000", "103903.150000", "103905.157500", "103907.165000", "103909.172500", "103911.180000", "103913.190000", "103915.197500", "103917.205000", "103919.212500", "103921.220000", "103923.230000", "103925.237500", "103927.245000", "103929.252500", "103931.260000", "103933.270000", "103935.277500", "103937.285000", "103939.292500", "103941.302500", "103943.310000", "103945.317500", "103947.325000", "103949.332500", "103951.342500", "103953.350000", "103955.357500", "103957.365000", "103959.372500", "104001.382500", "104003.390000", "104005.397500", "104007.405000", "104009.415000", "104011.422500", "104013.430000", "104015.437500", "104017.445000", "104019.455000", "104021.462500", "104023.470000", "104025.477500", "104027.485000", "104029.495000", "104031.502500", "104033.510000", "104035.517500", "104037.527500", "104039.535000", "104041.542500", "104043.550000", "104045.557500", "104047.567500", "104049.575000", "104051.582500", "104053.590000", "104055.597500", "104057.607500", "104059.615000", "104101.622500", "104103.630000", "104105.637500", "104107.647500", "104109.655000", "104111.662500", "104113.670000", "104115.680000", "104117.687500", "104119.695000", "104121.702500", "104123.710000", "104125.720000", "104127.727500", "104129.735000", "104131.742500", "104133.750000", "104135.760000", "104137.767500", "104139.775000", "104141.782500", "104143.792500", "104145.800000", "104147.807500", "104149.815000", "104151.822500", "104153.832500", "104155.840000", "104157.847500", "104159.855000", "104201.862500", "104203.872500", "104205.880000", "104207.887500", "104209.895000", "104211.905000", "104213.912500", "104215.920000", "104217.927500", "104219.935000", "104221.945000", "104223.952500", "104225.960000", "104227.967500", "104229.975000", "104231.985000", "104233.992500", "104236.000000", "104238.007500", "104240.015000", "104242.025000", "104244.032500", "104246.040000", "104248.047500", "104250.057500", "104252.065000", "104254.072500", "104256.080000"],
      "ContentTime": ["102841.265000", "102841.281000", "102841.296000", "102841.296000", "102841.296000", "102841.296000", "102841.296000", "102841.296000", "102841.296000", "102841.312000", "102841.312000", "102841.312000", "102841.312000", "102841.312000", "102841.312000", "102841.312000", "102841.312000", "102841.328000", "102841.328000", "102841.328000", "102841.328000", "102841.328000", "102841.343000", "102921.265000", "102921.265000", "102921.265000", "102921.265000", "102921.265000", "102921.265000", "102921.281000", "102921.281000", "102921.281000", "102921.281000", "102921.281000", "102921.296000", "102921.296000", "102921.296000", "102921.296000", "102921.296000", "102921.296000", "102921.296000", "102921.312000", "102921.312000", "103001.265000", "103001.265000", "103001.265000", "103001.265000", "103001.265000", "103001.265000", "103001.281000", "103001.281000", "103001.281000", "103001.281000", "103001.281000", "103001.296000", "103001.296000", "103001.296000", "103001.296000", "103001.296000", "103001.312000", "103001.312000", "103001.312000", "103001.312000", "103041.265000", "103041.265000", "103041.265000", "103041.265000", "103041.265000", "103041.265000", "103041.265000", "103041.281000", "103041.281000", "103041.281000", "103041.281000", "103041.281000", "103041.281000", "103041.281000", "103041.296000", "103041.296000", "103041.296000", "103041.312000", "103041.312000", "103041.312000", "103121.265000", "103121.265000", "103121.265000", "103121.265000", "103121.265000", "103121.265000", "103121.265000", "103121.281000", "103121.281000", "103121.281000", "103121.281000", "103121.281000", "103121.281000", "103121.281000", "103121.296000", "103121.296000", "103121.296000", "103121.312000", "103121.312000", "103121.312000", "103201.265000", "103201.265000", "103201.265000", "103201.265000", "103201.265000", "103201.265000", "103201.265000", "103201.281000", "103201.281000", "103201.296000", "103201.296000", "103201.296000", "103201.296000", "103201.296000", "103201.296000", "103201.296000", "103201.312000", "103201.312000", "103201.312000", "103201.312000", "103241.265000", "103241.265000", "103241.265000", "103241.265000", "103241.265000", "103241.265000", "103241.265000", "103241.281000", "103241.281000", "103241.296000", "103241.296000", "103241.296000", "103241.296000", "103241.296000", "103241.296000", "103241.296000", "103241.312000", "103241.312000", "103241.312000", "103241.312000", "103301.265000", "103301.265000", "103301.265000", "103301.265000", "103301.265000", "103301.265000", "103301.265000", "103301.281000", "103301.281000", "103301.281000", "103341.265000", "103341.265000", "103341.265000", "103341.265000", "103341.265000", "103341.265000", "103341.281000", "103341.281000", "103341.281000", "103341.296000", "103341.296000", "103341.296000", "103341.296000", "103341.296000", "103341.296000", "103341.312000", "103341.312000", "103341.312000", "103341.312000", "103341.312000", "103421.265000", "103421.265000", "103421.265000", "103421.265000", "103421.265000", "103421.265000", "103421.265000", "103421.281000", "103421.281000", "103421.281000", "103421.281000", "103421.281000", "103421.281000", "103421.281000", "103421.296000", "103421.296000", "103421.296000", "103421.296000", "103421.312000", "103421.312000", "103501.265000", "103501.265000", "103501.265000", "103501.281000", "103501.281000", "103501.281000", "103501.281000", "103501.281000", "103501.281000", "103501.281000", "103501.296000", "103501.296000", "103501.296000", "103501.296000", "103501.296000", "103501.296000", "103501.312000", "103501.312000", "103501.312000", "103501.312000", "103541.250000", "103541.250000", "103541.250000", "103541.265000", "103541.265000", "103541.265000", "103541.265000", "103541.265000", "103541.265000", "103541.281000", "103541.281000", "103541.281000", "103541.281000", "103541.281000", "103541.281000", "103541.281000", "103541.296000", "103541.296000", "103541.296000", "103541.296000", "103621.250000", "103621.250000", "103621.250000", "103621.250000", "103621.250000", "103621.265000", "103621.265000", "103621.265000", "103621.265000", "103621.265000", "103621.281000", "103621.281000", "103621.281000", "103621.281000", "103621.281000", "103621.281000", "103621.281000", "103621.296000", "103621.296000", "103621.296000", "103701.250000", "103701.250000", "103701.250000", "103701.250000", "103701.250000", "103701.250000", "103701.265000", "103701.265000", "103701.265000", "103701.265000", "103701.265000", "103701.265000", "103701.265000", "103701.281000", "103701.281000", "103701.281000", "103701.281000", "103701.281000", "103701.281000", "103701.281000", "103741.250000", "103741.250000", "103741.250000", "103741.250000", "103741.250000", "103741.265000", "103741.265000", "103741.265000", "103741.265000", "103741.265000", "103741.281000", "103741.281000", "103741.281000", "103741.281000", "103741.281000", "103741.281000", "103741.281000", "103741.296000", "103741.296000", "103741.296000", "103821.250000", "103821.250000", "103821.250000", "103821.250000", "103821.265000", "103821.265000", "103821.265000", "103821.265000", "103821.281000", "103821.281000", "103821.281000", "103821.281000", "103821.281000", "103821.281000", "103821.281000", "103821.296000", "103821.296000", "103821.296000", "103821.296000", "103821.296000", "103901.250000", "103901.250000", "103901.250000", "103901.250000", "103901.250000", "103901.265000", "103901.265000", "103901.265000", "103901.265000", "103901.265000", "103901.265000", "103901.265000", "103901.281000", "103901.281000", "103901.281000", "103901.281000", "103901.281000", "103901.281000", "103901.281000", "103901.296000", "103941.250000", "103941.250000", "103941.250000", "103941.250000", "103941.250000", "103941.265000", "103941.265000", "103941.265000", "103941.265000", "103941.265000", "103941.265000", "103941.265000", "103941.281000", "103941.281000", "103941.281000", "103941.281000", "103941.281000", "103941.281000", "103941.281000", "103941.296000", "104021.250000", "104021.250000", "104021.250000", "104021.250000", "104021.250000", "104021.265000", "104021.265000", "104021.265000", "104021.265000", "104021.281000", "104021.281000", "104021.281000", "104021.281000", "104021.281000", "104021.281000", "104021.281000", "104021.296000", "104021.296000", "104021.296000", "104021.296000", "104101.250000", "104101.250000", "104101.250000", "104101.250000", "104101.250000", "104101.265000", "104101.265000", "104101.265000", "104101.265000", "104101.265000", "104101.265000", "104101.281000", "104101.281000", "104101.281000", "104101.281000", "104101.296000", "104101.296000", "104101.296000", "104101.296000", "104101.296000", "104141.250000", "104141.250000", "104141.250000", "104141.250000", "104141.250000", "104141.265000", "104141.265000", "104141.265000", "104141.265000", "104141.265000", "104141.265000", "104141.265000", "104141.281000", "104141.281000", "104141.281000", "104141.281000", "104141.281000", "104141.281000", "104141.281000", "104141.296000", "104221.250000", "104221.250000", "104221.250000", "104221.250000", "104221.250000", "104221.265000", "104221.265000", "104221.265000", "104221.265000", "104221.265000", "104221.281000", "104221.281000", "104221.281000", "104221.281000", "104221.281000", "104221.281000", "104221.281000", "104221.296000", "104221.296000", "104221.296000", "104254.765000", "104254.765000", "104254.781000", "104254.781000", "104254.781000", "104254.781000", "104254.796000", "104254.796000", "104254.796000", "104254.796000", "104254.796000", "104254.796000", "104254.812000", "104254.812000", "104254.812000", "104254.812000", "104254.812000"],
