{
  "AcquisitionMatrixPE": 72,
  "AcquisitionNumber": 1,
  "AcquisitionTime": "18:25:0.557500",
  "BandwidthPerPixelPhaseEncode": 28.935,
  "BaseResolution": 72,
  "CoilString": "C:HEA;HEP",
  "ConversionSoftware": "dcm2niix",
  "ConversionSoftwareVersion": "v1.0.20190410  GCC6.3.0",
  "DerivedVendorReportedEchoSpacing": 0.000480003,
  "DeviceSerialNumber": "35149",
  "DwellTime": 2.9e-06,
  "EchoTime": 0.025,
  "EffectiveEchoSpacing": 0.000480003,
  "FlipAngle": 75,
  "ImageOrientationPatientDICOM": [0.998188, -0.0586002, 0.013678, 0.0584558, 0.890333, -0.451542],
  "ImageType": [
    "ORIGINAL",
    "PRIMARY",
    "M",
    "ND",
    "MOSAIC"
],
  "ImagingFrequency": 123.254,
  "InPlanePhaseEncodingDirectionDICOM": "COL",
  "InstitutionAddress": "Street_StreetNo_Rehovot_91E162_District_IL_ZIP",
  "InstitutionName": "Weizmann",
  "InstitutionalDepartmentName": "Department",
  "MRAcquisitionType": "2D",
  "MagneticFieldStrength": 3,
  "Manufacturer": "Siemens",
  "ManufacturersModelName": "TrioTim",
  "Modality": "MR",
  "PartialFourier": 1,
  "PatientPosition": "HFS",
  "PercentPhaseFOV": 100,
  "PhaseEncodingDirection": "j-",
  "PhaseEncodingSteps": 72,
  "PhaseResolution": 1,
  "PixelBandwidth": 2395,
  "ProcedureStepDescription": "Weizmann_Sobel",
  "ProtocolName": "exp1_30_to_AC-PC",
  "PulseSequenceDetails": "%SiemensSeq%_ep2d_pace",
  "ReceiveCoilName": "HeadMatrix",
  "ReconMatrixPE": 72,
  "RepetitionTime": 2,
  "SAR": 0.151034,
  "ScanOptions": "FS",
  "ScanningSequence": "EP",
  "SequenceName": "_epfid2d1_72",
  "SequenceVariant": "SK",
  "SeriesDescription": "exp1_30_to_AC-PC",
  "SeriesNumber": 5,
  "ShimSetting": [2321, 9270, -5721, 332, 175, -659, 215, 72],
  "SliceThickness": 3.7,
  "SliceTiming": [0.9925, 0, 1.0525, 0.0575, 1.11, 0.115, 1.1675, 0.175, 1.2275, 0.2325, 1.285, 0.2925, 1.3425, 0.35, 1.4025, 0.4075, 1.46, 0.4675, 1.52, 0.525, 1.5775, 0.585, 1.635, 0.6425, 1.695, 0.7, 1.7525, 0.76, 1.8125, 0.8175, 1.87, 0.875, 1.9275, 0.935],
  "SoftwareVersions": "syngo_MR_B17",
  "SpacingBetweenSlices": 3.7,
  "StationName": "MRC35149",
  "TaskName": "bodyodor",
  "TotalReadoutTime": 0.0340802,
  "TxRefAmp": 310.406,
  "VendorReportedEchoSpacing": 0.00048,
  "dcmmeta_affine": [
    [-2.994563579559326, 0.17536738514900208, -0.05284517630934715, 102.24762725830078],
    [0.17580053210258484, 2.6709980964660645, -1.670637607574463, -48.480003356933594],
    [0.04103405028581619, 1.354627251625061, 3.300935745239258, -70.34058380126953],
    [0.0, 0.0, 0.0, 1.0]
],
  "dcmmeta_reorient_transform": [
    [0.0, -1.0, 0.0, 71.0],
    [1.0, 0.0, 0.0, 0.0],
    [0.0, 0.0, 1.0, 0.0],
    [0.0, 0.0, 0.0, 1.0]
],
  "dcmmeta_shape": [72, 72, 34, 450],
  "dcmmeta_slice_dim": 2,
  "dcmmeta_version": 0.6,
  "global": {
    "const": {
      "AcquisitionMatrix": [72, 0, 0, 72],
      "AngioFlag": "N",
      "BitsAllocated": 16,
      "BitsStored": 12,
      "Columns": 432,
      "EchoNumbers": 1,
      "EchoTime": 25.0,
      "EchoTrainLength": 1,
      "FlipAngle": 75.0,
      "HighBit": 11,
      "ImageOrientationPatient": [0.99818782339901, -0.0586001798247, 0.01367801675881, 0.05845579504076, 0.89033273174148, -0.4515424086572],
      "ImagePositionPatient": [-685.2862673752, -590.29644532054, 262.28472328594],
      "ImageType": [
        "ORIGINAL",
        "PRIMARY",
        "M",
        "ND",
        "MOSAIC"
],
      "ImagedNucleus": "1H",
      "ImagingFrequency": 123.254475,
      "InPlanePhaseEncodingDirection": "COL",
      "MRAcquisitionType": "2D",
      "MagneticFieldStrength": 3.0,
      "Manufacturer": "SIEMENS",
      "ManufacturerModelName": "TrioTim",
      "Modality": "MR",
      "NumberOfAverages": 1.0,
      "NumberOfPhaseEncodingSteps": 72,
      "PercentPhaseFieldOfView": 100.0,
      "PercentSampling": 100.0,
      "PerformedProcedureStepStartTime": "171712.000000",
      "PhotometricInterpretation": "MONOCHROME2",
      "PixelBandwidth": 2395.0,
      "PixelRepresentation": 0,
      "PixelSpacing": [3.0, 3.0],
      "ProtocolName": "exp1_30_to_AC-PC",
      "RepetitionTime": 2000.0,
      "Rows": 432,
      "SAR": 0.15103410590741,
      "SamplesPerPixel": 1,
      "ScanOptions": "FS",
      "ScanningSequence": "EP",
      "SequenceName": "*epfid2d1_72",
      "SequenceVariant": "SK",
      "SeriesDescription": "exp1_30_to_AC-PC",
      "SeriesNumber": 5,
      "SeriesTime": "182556.593000",
      "SliceLocation": -42.324463760253,
      "SliceThickness": 3.7000000476837,
      "SmallestImagePixelValue": 0,
      "SoftwareVersions": "syngo MR B17",
      "SpacingBetweenSlices": 3.6999999255856,
      "SpecificCharacterSet": "ISO_IR 100",
      "StudyID": "1",
      "StudyTime": "171711.937000",
      "TransmitCoilName": "Body",
      "VariableFlipAngleFlag": "N",
      "WindowCenterWidthExplanation": "Algo1",
      "dBdt": 0.0},
    "slices": {}
  },
  "time": {
    "samples": {
      "AcquisitionNumber": [1, 2, 3, 4, 5, 6, 7, 8, 9, 10, 11, 12, 13, 14, 15, 16, 17, 18, 19, 20, 21, 22, 23, 24, 25, 26, 27, 28, 29, 30, 31, 32, 33, 34, 35, 36, 37, 38, 39, 40, 41, 42, 43, 44, 45, 46, 47, 48, 49, 50, 51, 52, 53, 54, 55, 56, 57, 58, 59, 60, 61, 62, 63, 64, 65, 66, 67, 68, 69, 70, 71, 72, 73, 74, 75, 76, 77, 78, 79, 80, 81, 82, 83, 84, 85, 86, 87, 88, 89, 90, 91, 92, 93, 94, 95, 96, 97, 98, 99, 100, 101, 102, 103, 104, 105, 106, 107, 108, 109, 110, 111, 112, 113, 114, 115, 116, 117, 118, 119, 120, 121, 122, 123, 124, 125, 126, 127, 128, 129, 130, 131, 132, 133, 134, 135, 136, 137, 138, 139, 140, 141, 142, 143, 144, 145, 146, 147, 148, 149, 150, 151, 152, 153, 154, 155, 156, 157, 158, 159, 160, 161, 162, 163, 164, 165, 166, 167, 168, 169, 170, 171, 172, 173, 174, 175, 176, 177, 178, 179, 180, 181, 182, 183, 184, 185, 186, 187, 188, 189, 190, 191, 192, 193, 194, 195, 196, 197, 198, 199, 200, 201, 202, 203, 204, 205, 206, 207, 208, 209, 210, 211, 212, 213, 214, 215, 216, 217, 218, 219, 220, 221, 222, 223, 224, 225, 226, 227, 228, 229, 230, 231, 232, 233, 234, 235, 236, 237, 238, 239, 240, 241, 242, 243, 244, 245, 246, 247, 248, 249, 250, 251, 252, 253, 254, 255, 256, 257, 258, 259, 260, 261, 262, 263, 264, 265, 266, 267, 268, 269, 270, 271, 272, 273, 274, 275, 276, 277, 278, 279, 280, 281, 282, 283, 284, 285, 286, 287, 288, 289, 290, 291, 292, 293, 294, 295, 296, 297, 298, 299, 300, 301, 302, 303, 304, 305, 306, 307, 308, 309, 310, 311, 312, 313, 314, 315, 316, 317, 318, 319, 320, 321, 322, 323, 324, 325, 326, 327, 328, 329, 330, 331, 332, 333, 334, 335, 336, 337, 338, 339, 340, 341, 342, 343, 344, 345, 346, 347, 348, 349, 350, 351, 352, 353, 354, 355, 356, 357, 358, 359, 360, 361, 362, 363, 364, 365, 366, 367, 368, 369, 370, 371, 372, 373, 374, 375, 376, 377, 378, 379, 380, 381, 382, 383, 384, 385, 386, 387, 388, 389, 390, 391, 392, 393, 394, 395, 396, 397, 398, 399, 400, 401, 402, 403, 404, 405, 406, 407, 408, 409, 410, 411, 412, 413, 414, 415, 416, 417, 418, 419, 420, 421, 422, 423, 424, 425, 426, 427, 428, 429, 430, 431, 432, 433, 434, 435, 436, 437, 438, 439, 440, 441, 442, 443, 444, 445, 446, 447, 448, 449, 450],
      "AcquisitionTime": ["182500.557500", "182502.565000", "182504.575000", "182506.582500", "182508.590000", "182510.597500", "182512.605000", "182514.615000", "182516.622500", "182518.630000", "182520.637500", "182522.647500", "182524.655000", "182526.662500", "182528.670000", "182530.677500", "182532.687500", "182534.695000", "182536.702500", "182538.710000", "182540.717500", "182542.727500", "182544.735000", "182546.742500", "182548.750000", "182550.760000", "182552.767500", "182554.775000", "182556.782500", "182558.790000", "182600.800000", "182602.807500", "182604.815000", "182606.822500", "182608.830000", "182610.840000", "182612.847500", "182614.855000", "182616.862500", "182618.872500", "182620.880000", "182622.887500", "182624.895000", "182626.902500", "182628.912500", "182630.920000", "182632.927500", "182634.935000", "182636.942500", "182638.952500", "182640.960000", "182642.967500", "182644.975000", "182646.982500", "182648.992500", "182651.000000", "182653.007500", "182655.015000", "182657.025000", "182659.032500", "182701.040000", "182703.047500", "182705.055000", "182707.065000", "182709.072500", "182711.080000", "182713.087500", "182715.095000", "182717.105000", "182719.112500", "182721.120000", "182723.127500", "182725.137500", "182727.145000", "182729.152500", "182731.160000", "182733.167500", "182735.177500", "182737.185000", "182739.192500", "182741.200000", "182743.207500", "182745.217500", "182747.225000", "182749.232500", "182751.240000", "182753.250000", "182755.257500", "182757.265000", "182759.272500", "182801.280000", "182803.290000", "182805.297500", "182807.305000", "182809.312500", "182811.320000", "182813.330000", "182815.337500", "182817.345000", "182819.352500", "182821.360000", "182823.370000", "182825.377500", "182827.385000", "182829.392500", "182831.402500", "182833.410000", "182835.417500", "182837.425000", "182839.432500", "182841.442500", "182843.450000", "182845.457500", "182847.465000", "182849.472500", "182851.482500", "182853.490000", "182855.497500", "182857.505000", "182859.515000", "182901.522500", "182903.530000", "182905.537500", "182907.545000", "182909.555000", "182911.562500", "182913.570000", "182915.577500", "182917.585000", "182919.595000", "182921.602500", "182923.610000", "182925.617500", "182927.627500", "182929.635000", "182931.642500", "182933.650000", "182935.657500", "182937.667500", "182939.675000", "182941.682500", "182943.690000", "182945.697500", "182947.707500", "182949.715000", "182951.722500", "182953.730000", "182955.737500", "182957.747500", "182959.755000", "183001.762500", "183003.770000", "183005.780000", "183007.787500", "183009.795000", "183011.802500", "183013.810000", "183015.820000", "183017.827500", "183019.835000", "183021.842500", "183023.850000", "183025.860000", "183027.867500", "183029.875000", "183031.882500", "183033.892500", "183035.900000", "183037.907500", "183039.915000", "183041.922500", "183043.932500", "183045.940000", "183047.947500", "183049.955000", "183051.962500", "183053.972500", "183055.980000", "183057.987500", "183059.995000", "183102.005000", "183104.012500", "183106.020000", "183108.027500", "183110.035000", "183112.045000", "183114.052500", "183116.060000", "183118.067500", "183120.075000", "183122.085000", "183124.092500", "183126.100000", "183128.107500", "183130.115000", "183132.125000", "183134.132500", "183136.140000", "183138.147500", "183140.157500", "183142.165000", "183144.172500", "183146.180000", "183148.187500", "183150.197500", "183152.205000", "183154.212500", "183156.220000", "183158.227500", "183200.237500", "183202.245000", "183204.252500", "183206.260000", "183208.270000", "183210.277500", "183212.285000", "183214.292500", "183216.300000", "183218.310000", "183220.317500", "183222.325000", "183224.332500", "183226.340000", "183228.350000", "183230.357500", "183232.365000", "183234.372500", "183236.382500", "183238.390000", "183240.397500", "183242.405000", "183244.412500", "183246.422500", "183248.430000", "183250.437500", "183252.445000", "183254.452500", "183256.462500", "183258.470000", "183300.477500", "183302.485000", "183304.495000", "183306.502500", "183308.510000", "183310.517500", "183312.525000", "183314.535000", "183316.542500", "183318.550000", "183320.557500", "183322.565000", "183324.575000", "183326.582500", "183328.590000", "183330.597500", "183332.605000", "183334.615000", "183336.622500", "183338.630000", "183340.637500", "183342.647500", "183344.655000", "183346.662500", "183348.670000", "183350.677500", "183352.687500", "183354.695000", "183356.702500", "183358.710000", "183400.717500", "183402.727500", "183404.735000", "183406.742500", "183408.750000", "183410.760000", "183412.767500", "183414.775000", "183416.782500", "183418.790000", "183420.800000", "183422.807500", "183424.815000", "183426.822500", "183428.830000", "183430.840000", "183432.847500", "183434.855000", "183436.862500", "183438.872500", "183440.880000", "183442.887500", "183444.895000", "183446.902500", "183448.912500", "183450.920000", "183452.927500", "183454.935000", "183456.942500", "183458.952500", "183500.960000", "183502.967500", "183504.975000", "183506.982500", "183508.992500", "183511.000000", "183513.007500", "183515.015000", "183517.025000", "183519.032500", "183521.040000", "183523.047500", "183525.055000", "183527.065000", "183529.072500", "183531.080000", "183533.087500", "183535.095000", "183537.105000", "183539.112500", "183541.120000", "183543.127500", "183545.137500", "183547.145000", "183549.152500", "183551.160000", "183553.167500", "183555.177500", "183557.185000", "183559.192500", "183601.200000", "183603.207500", "183605.217500", "183607.225000", "183609.232500", "183611.240000", "183613.250000", "183615.257500", "183617.265000", "183619.272500", "183621.280000", "183623.290000", "183625.297500", "183627.305000", "183629.312500", "183631.320000", "183633.330000", "183635.337500", "183637.345000", "183639.352500", "183641.360000", "183643.370000", "183645.377500", "183647.385000", "183649.392500", "183651.402500", "183653.410000", "183655.417500", "183657.425000", "183659.432500", "183701.442500", "183703.450000", "183705.457500", "183707.465000", "183709.472500", "183711.482500", "183713.490000", "183715.497500", "183717.505000", "183719.515000", "183721.522500", "183723.530000", "183725.537500", "183727.545000", "183729.555000", "183731.562500", "183733.570000", "183735.577500", "183737.585000", "183739.595000", "183741.602500", "183743.610000", "183745.617500", "183747.627500", "183749.635000", "183751.642500", "183753.650000", "183755.657500", "183757.667500", "183759.675000", "183801.682500", "183803.690000", "183805.697500", "183807.707500", "183809.715000", "183811.722500", "183813.730000", "183815.737500", "183817.747500", "183819.755000", "183821.762500", "183823.770000", "183825.780000", "183827.787500", "183829.795000", "183831.802500", "183833.810000", "183835.820000", "183837.827500", "183839.835000", "183841.842500", "183843.850000", "183845.860000", "183847.867500", "183849.875000", "183851.882500", "183853.892500", "183855.900000", "183857.907500", "183859.915000", "183901.922500", "183903.932500", "183905.940000", "183907.947500", "183909.955000", "183911.962500", "183913.972500", "183915.980000", "183917.987500", "183919.995000", "183922.005000", "183924.012500", "183926.020000", "183928.027500", "183930.035000", "183932.045000", "183934.052500", "183936.060000", "183938.067500", "183940.075000", "183942.085000", "183944.092500", "183946.100000", "183948.107500", "183950.115000", "183952.125000", "183954.132500", "183956.140000", "183958.147500", "184000.157500", "184002.165000"],
      "ContentTime": ["182556.593000", "182556.593000", "182556.593000", "182556.609000", "182556.609000", "182556.609000", "182556.609000", "182556.609000", "182556.609000", "182556.609000", "182556.609000", "182556.625000", "182556.625000", "182556.625000", "182556.625000", "182556.640000", "182556.640000", "182556.640000", "182556.640000", "182556.640000", "182556.640000", "182556.640000", "182556.656000", "182556.656000", "182556.656000", "182556.656000", "182556.656000", "182556.656000", "182636.578000", "182636.593000", "182636.593000", "182636.593000", "182636.593000", "182636.593000", "182636.593000", "182636.609000", "182636.609000", "182636.609000", "182636.609000", "182636.609000", "182636.609000", "182636.609000", "182636.625000", "182636.625000", "182636.625000", "182636.625000", "182636.625000", "182636.625000", "182716.578000", "182716.593000", "182716.593000", "182716.593000", "182716.593000", "182716.593000", "182716.609000", "182716.609000", "182716.609000", "182716.609000", "182716.609000", "182716.625000", "182716.625000", "182716.625000", "182716.625000", "182716.625000", "182716.625000", "182716.625000", "182716.640000", "182716.640000", "182756.578000", "182756.593000", "182756.593000", "182756.593000", "182756.593000", "182756.593000", "182756.593000", "182756.593000", "182756.609000", "182756.609000", "182756.609000", "182756.609000", "182756.609000", "182756.609000", "182756.609000", "182756.625000", "182756.625000", "182756.625000", "182756.640000", "182756.640000", "182836.578000", "182836.593000", "182836.593000", "182836.593000", "182836.593000", "182836.593000", "182836.609000", "182836.609000", "182836.609000", "182836.609000", "182836.609000", "182836.609000", "182836.609000", "182836.625000", "182836.625000", "182836.625000", "182836.625000", "182836.625000", "182836.625000", "182836.625000", "182916.578000", "182916.593000", "182916.593000", "182916.593000", "182916.593000", "182916.593000", "182916.593000", "182916.609000", "182916.609000", "182916.609000", "182916.609000", "182916.609000", "182916.609000", "182916.609000", "182916.625000", "182916.625000", "182916.625000", "182916.625000", "182916.625000", "182916.625000", "182936.578000", "182936.593000", "182936.593000", "182936.593000", "182936.593000", "182936.593000", "182936.593000", "182936.593000", "182936.609000", "182936.609000", "183016.578000", "183016.593000", "183016.593000", "183016.593000", "183016.593000", "183016.593000", "183016.593000", "183016.593000", "183016.609000", "183016.609000", "183016.609000", "183016.609000", "183016.609000", "183016.609000", "183016.609000", "183016.625000", "183016.625000", "183016.625000", "183016.625000", "183016.625000", "183056.578000", "183056.593000", "183056.593000", "183056.593000", "183056.593000", "183056.593000", "183056.593000", "183056.593000", "183056.609000", "183056.609000", "183056.609000", "183056.609000", "183056.609000", "183056.609000", "183056.609000", "183056.625000", "183056.625000", "183056.625000", "183056.625000", "183056.625000", "183136.578000", "183136.593000", "183136.593000", "183136.593000", "183136.593000", "183136.593000", "183136.593000", "183136.609000", "183136.609000", "183136.609000", "183136.609000", "183136.609000", "183136.609000", "183136.609000", "183136.625000", "183136.625000", "183136.625000", "183136.625000", "183136.625000", "183136.625000", "183216.578000", "183216.593000", "183216.593000", "183216.593000", "183216.593000", "183216.593000", "183216.593000", "183216.609000", "183216.609000", "183216.609000", "183216.609000", "183216.609000", "183216.609000", "183216.609000", "183216.625000", "183216.625000", "183216.625000", "183216.625000", "183216.640000", "183216.640000", "183256.578000", "183256.593000", "183256.593000", "183256.593000", "183256.593000", "183256.593000", "183256.593000", "183256.593000", "183256.609000", "183256.609000", "183256.609000", "183256.609000", "183256.609000", "183256.609000", "183256.609000", "183256.625000", "183256.625000", "183256.625000", "183256.625000", "183256.625000", "183336.578000", "183336.593000", "183336.593000", "183336.593000", "183336.593000", "183336.593000", "183336.593000", "183336.593000", "183336.609000", "183336.609000", "183336.609000", "183336.609000", "183336.609000", "183336.609000", "183336.625000", "183336.625000", "183336.625000", "183336.625000", "183336.625000", "183336.625000", "183416.578000", "183416.593000", "183416.593000", "183416.593000", "183416.593000", "183416.593000", "183416.609000", "183416.609000", "183416.609000", "183416.609000", "183416.609000", "183416.609000", "183416.609000", "183416.625000", "183416.625000", "183416.625000", "183416.625000", "183416.640000", "183416.640000", "183416.640000", "183456.593000", "183456.593000", "183456.593000", "183456.593000", "183456.593000", "183456.593000", "183456.609000", "183456.609000", "183456.609000", "183456.609000", "183456.609000", "183456.609000", "183456.609000", "183456.625000", "183456.625000", "183456.625000", "183456.625000", "183456.625000", "183456.625000", "183456.625000", "183536.593000", "183536.593000", "183536.593000", "183536.593000", "183536.593000", "183536.593000", "183536.609000", "183536.609000", "183536.609000", "183536.609000", "183536.609000", "183536.609000", "183536.609000", "183536.609000", "183536.625000", "183536.625000", "183536.625000", "183536.625000", "183536.625000", "183536.625000", "183616.593000", "183616.593000", "183616.593000", "183616.593000", "183616.593000", "183616.593000", "183616.609000", "183616.609000", "183616.609000", "183616.609000", "183616.609000", "183616.609000", "183616.609000", "183616.625000", "183616.625000", "183616.625000", "183616.625000", "183616.625000", "183616.625000", "183616.625000", "183656.593000", "183656.593000", "183656.593000", "183656.593000", "183656.593000", "183656.593000", "183656.609000", "183656.609000", "183656.609000", "183656.609000", "183656.609000", "183656.609000", "183656.609000", "183656.609000", "183656.625000", "183656.625000", "183656.625000", "183656.625000", "183656.625000", "183656.625000", "183736.593000", "183736.593000", "183736.593000", "183736.593000", "183736.593000", "183736.593000", "183736.609000", "183736.609000", "183736.609000", "183736.609000", "183736.609000", "183736.609000", "183736.609000", "183736.625000", "183736.625000", "183736.625000", "183736.625000", "183736.640000", "183736.640000", "183736.640000", "183816.593000", "183816.593000", "183816.593000", "183816.593000", "183816.593000", "183816.593000", "183816.609000", "183816.609000", "183816.609000", "183816.609000", "183816.609000", "183816.609000", "183816.609000", "183816.625000", "183816.625000", "183816.625000", "183816.625000", "183816.625000", "183816.625000", "183816.625000", "183856.593000", "183856.593000", "183856.593000", "183856.593000", "183856.593000", "183856.593000", "183856.609000", "183856.609000", "183856.609000", "183856.609000", "183856.609000", "183856.625000", "183856.625000", "183856.640000", "183856.640000", "183856.640000", "183856.640000", "183856.640000", "183856.640000", "183856.640000", "183936.593000", "183936.593000", "183936.593000", "183936.593000", "183936.593000", "183936.593000", "183936.609000", "183936.609000", "183936.609000", "183936.609000", "183936.609000", "183936.609000", "183936.625000", "183936.625000", "183936.625000", "183936.625000", "183936.625000", "183936.640000", "183936.640000", "183936.640000", "183959.734000", "183959.734000", "183959.750000", "183959.765000", "183959.765000", "183959.765000", "183959.765000", "183959.765000", "183959.781000", "183959.781000", "183959.781000", "183959.781000"],
