{
  "AcquisitionMatrixPE": 72,
  "AcquisitionNumber": 1,
  "AcquisitionTime": "11:15:39.347500",
  "BandwidthPerPixelPhaseEncode": 28.935,
  "BaseResolution": 72,
  "CoilString": "C:HEA;HEP",
  "ConversionSoftware": "dcm2niix",
  "ConversionSoftwareVersion": "v1.0.20190410  GCC6.3.0",
  "DerivedVendorReportedEchoSpacing": 0.000480003,
  "DeviceSerialNumber": "35149",
  "DwellTime": 2.9e-06,
  "EchoTime": 0.025,
  "EffectiveEchoSpacing": 0.000480003,
  "FlipAngle": 75,
  "ImageOrientationPatientDICOM": [0.999591, 0.0283859, -0.00358358, -0.0268396, 0.886923, -0.461136],
  "ImageType": [
    "ORIGINAL",
    "PRIMARY",
    "M",
    "ND",
    "MOSAIC"
],
  "ImagingFrequency": 123.254,
  "InPlanePhaseEncodingDirectionDICOM": "COL",
  "InstitutionAddress": "Street_StreetNo_Rehovot_91E162_District_IL_ZIP",
  "InstitutionName": "Weizmann",
  "InstitutionalDepartmentName": "Department",
  "MRAcquisitionType": "2D",
  "MagneticFieldStrength": 3,
  "Manufacturer": "Siemens",
  "ManufacturersModelName": "TrioTim",
  "Modality": "MR",
  "PartialFourier": 1,
  "PatientPosition": "HFS",
  "PercentPhaseFOV": 100,
  "PhaseEncodingDirection": "j-",
  "PhaseEncodingSteps": 72,
  "PhaseResolution": 1,
  "PixelBandwidth": 2395,
  "ProcedureStepDescription": "Weizmann_Sobel",
  "ProtocolName": "exp1_30_to_AC-PC",
  "PulseSequenceDetails": "%SiemensSeq%_ep2d_pace",
  "ReceiveCoilName": "HeadMatrix",
  "ReconMatrixPE": 72,
  "RepetitionTime": 2,
  "SAR": 0.127241,
  "ScanOptions": "FS",
  "ScanningSequence": "EP",
  "SequenceName": "_epfid2d1_72",
  "SequenceVariant": "SK",
  "SeriesDescription": "exp1_30_to_AC-PC",
  "SeriesNumber": 5,
  "ShimSetting": [2310, 9313, -5341, 910, 137, -607, 535, 279],
  "SliceThickness": 3.7,
  "SliceTiming": [0.9925, 0, 1.05, 0.0575, 1.11, 0.115, 1.1675, 0.175, 1.2275, 0.2325, 1.285, 0.29, 1.3425, 0.35, 1.4025, 0.4075, 1.46, 0.4675, 1.5175, 0.525, 1.5775, 0.5825, 1.635, 0.6425, 1.695, 0.7, 1.7525, 0.76, 1.81, 0.8175, 1.87, 0.875, 1.9275, 0.935],
  "SoftwareVersions": "syngo_MR_B17",
  "SpacingBetweenSlices": 3.7,
  "StationName": "MRC35149",
  "TaskName": "blank",
  "TotalReadoutTime": 0.0340802,
  "TxRefAmp": 270.628,
  "VendorReportedEchoSpacing": 0.00048,
  "dcmmeta_affine": [
    [-2.998771905899048, -0.08051887154579163, 0.03667221590876579, 103.71676635742188],
    [-0.08515769988298416, 2.6607697010040283, -1.7058621644973755, -54.816959381103516],
    [-0.01075074728578329, 1.3834092617034912, 3.2830915451049805, -78.13774871826172],
    [0.0, 0.0, 0.0, 1.0]
],
  "dcmmeta_reorient_transform": [
    [0.0, -1.0, 0.0, 71.0],
    [1.0, 0.0, 0.0, 0.0],
    [0.0, 0.0, 1.0, 0.0],
    [0.0, 0.0, 0.0, 1.0]
],
  "dcmmeta_shape": [72, 72, 34, 450],
  "dcmmeta_slice_dim": 2,
  "dcmmeta_version": 0.6,
  "global": {
    "const": {
      "AcquisitionMatrix": [72, 0, 0, 72],
      "AngioFlag": "N",
      "BitsAllocated": 16,
      "BitsStored": 12,
      "Columns": 432,
      "EchoNumbers": 1,
      "EchoTime": 25.0,
      "EchoTrainLength": 1,
      "FlipAngle": 75.0,
      "HighBit": 11,
      "ImageOrientationPatient": [0.99959061548165, 0.02838590104179, -0.0035835824336, -0.0268396235952, 0.88692324745445, -0.4611364090268],
      "ImagePositionPatient": [-623.28546281461, -628.36463288254, 271.03310478982],
      "ImageType": [
        "ORIGINAL",
        "PRIMARY",
        "M",
        "ND",
        "MOSAIC"
],
      "ImagedNucleus": "1H",
      "ImagingFrequency": 123.254485,
      "InPlanePhaseEncodingDirection": "COL",
      "MRAcquisitionType": "2D",
      "MagneticFieldStrength": 3.0,
      "Manufacturer": "SIEMENS",
      "ManufacturerModelName": "TrioTim",
      "Modality": "MR",
      "NumberOfAverages": 1.0,
      "NumberOfPhaseEncodingSteps": 72,
      "PercentPhaseFieldOfView": 100.0,
      "PercentSampling": 100.0,
      "PerformedProcedureStepStartTime": "103620.421000",
      "PhotometricInterpretation": "MONOCHROME2",
      "PixelBandwidth": 2395.0,
      "PixelRepresentation": 0,
      "PixelSpacing": [3.0, 3.0],
      "ProtocolName": "exp1_30_to_AC-PC",
      "RepetitionTime": 2000.0,
      "Rows": 432,
      "SAR": 0.12724064108011,
      "SamplesPerPixel": 1,
      "ScanOptions": "FS",
      "ScanningSequence": "EP",
      "SequenceName": "*epfid2d1_72",
      "SequenceVariant": "SK",
      "SeriesDescription": "exp1_30_to_AC-PC",
      "SeriesNumber": 5,
      "SeriesTime": "111624.140000",
      "SliceLocation": -43.032343536326,
      "SliceThickness": 3.7000000476837,
      "SmallestImagePixelValue": 0,
      "SoftwareVersions": "syngo MR B17",
      "SpacingBetweenSlices": 3.7000001137025,
      "SpecificCharacterSet": "ISO_IR 100",
      "StudyID": "1",
      "StudyTime": "103620.281000",
      "TransmitCoilName": "Body",
      "VariableFlipAngleFlag": "N",
      "WindowCenterWidthExplanation": "Algo1",
      "dBdt": 0.0},
    "slices": {}
  },
  "time": {
    "samples": {
      "AcquisitionNumber": [1, 2, 3, 4, 5, 6, 7, 8, 9, 10, 11, 12, 13, 14, 15, 16, 17, 18, 19, 20, 21, 22, 23, 24, 25, 26, 27, 28, 29, 30, 31, 32, 33, 34, 35, 36, 37, 38, 39, 40, 41, 42, 43, 44, 45, 46, 47, 48, 49, 50, 51, 52, 53, 54, 55, 56, 57, 58, 59, 60, 61, 62, 63, 64, 65, 66, 67, 68, 69, 70, 71, 72, 73, 74, 75, 76, 77, 78, 79, 80, 81, 82, 83, 84, 85, 86, 87, 88, 89, 90, 91, 92, 93, 94, 95, 96, 97, 98, 99, 100, 101, 102, 103, 104, 105, 106, 107, 108, 109, 110, 111, 112, 113, 114, 115, 116, 117, 118, 119, 120, 121, 122, 123, 124, 125, 126, 127, 128, 129, 130, 131, 132, 133, 134, 135, 136, 137, 138, 139, 140, 141, 142, 143, 144, 145, 146, 147, 148, 149, 150, 151, 152, 153, 154, 155, 156, 157, 158, 159, 160, 161, 162, 163, 164, 165, 166, 167, 168, 169, 170, 171, 172, 173, 174, 175, 176, 177, 178, 179, 180, 181, 182, 183, 184, 185, 186, 187, 188, 189, 190, 191, 192, 193, 194, 195, 196, 197, 198, 199, 200, 201, 202, 203, 204, 205, 206, 207, 208, 209, 210, 211, 212, 213, 214, 215, 216, 217, 218, 219, 220, 221, 222, 223, 224, 225, 226, 227, 228, 229, 230, 231, 232, 233, 234, 235, 236, 237, 238, 239, 240, 241, 242, 243, 244, 245, 246, 247, 248, 249, 250, 251, 252, 253, 254, 255, 256, 257, 258, 259, 260, 261, 262, 263, 264, 265, 266, 267, 268, 269, 270, 271, 272, 273, 274, 275, 276, 277, 278, 279, 280, 281, 282, 283, 284, 285, 286, 287, 288, 289, 290, 291, 292, 293, 294, 295, 296, 297, 298, 299, 300, 301, 302, 303, 304, 305, 306, 307, 308, 309, 310, 311, 312, 313, 314, 315, 316, 317, 318, 319, 320, 321, 322, 323, 324, 325, 326, 327, 328, 329, 330, 331, 332, 333, 334, 335, 336, 337, 338, 339, 340, 341, 342, 343, 344, 345, 346, 347, 348, 349, 350, 351, 352, 353, 354, 355, 356, 357, 358, 359, 360, 361, 362, 363, 364, 365, 366, 367, 368, 369, 370, 371, 372, 373, 374, 375, 376, 377, 378, 379, 380, 381, 382, 383, 384, 385, 386, 387, 388, 389, 390, 391, 392, 393, 394, 395, 396, 397, 398, 399, 400, 401, 402, 403, 404, 405, 406, 407, 408, 409, 410, 411, 412, 413, 414, 415, 416, 417, 418, 419, 420, 421, 422, 423, 424, 425, 426, 427, 428, 429, 430, 431, 432, 433, 434, 435, 436, 437, 438, 439, 440, 441, 442, 443, 444, 445, 446, 447, 448, 449, 450],
      "AcquisitionTime": ["111539.347500", "111541.355000", "111543.362500", "111545.372500", "111547.380000", "111549.387500", "111551.395000", "111553.405000", "111555.412500", "111557.420000", "111559.427500", "111601.435000", "111603.445000", "111605.452500", "111607.460000", "111609.467500", "111611.475000", "111613.485000", "111615.492500", "111617.500000", "111619.507500", "111621.517500", "111623.525000", "111625.532500", "111627.540000", "111629.547500", "111631.557500", "111633.565000", "111635.572500", "111637.580000", "111639.587500", "111641.597500", "111643.605000", "111645.612500", "111647.620000", "111649.630000", "111651.637500", "111653.645000", "111655.652500", "111657.660000", "111659.670000", "111701.677500", "111703.685000", "111705.692500", "111707.700000", "111709.710000", "111711.717500", "111713.725000", "111715.732500", "111717.740000", "111719.750000", "111721.757500", "111723.765000", "111725.772500", "111727.782500", "111729.790000", "111731.797500", "111733.805000", "111735.812500", "111737.822500", "111739.830000", "111741.837500", "111743.845000", "111745.852500", "111747.862500", "111749.870000", "111751.877500", "111753.885000", "111755.895000", "111757.902500", "111759.910000", "111801.917500", "111803.925000", "111805.935000", "111807.942500", "111809.950000", "111811.957500", "111813.965000", "111815.975000", "111817.982500", "111819.990000", "111821.997500", "111824.007500", "111826.015000", "111828.022500", "111830.030000", "111832.037500", "111834.047500", "111836.055000", "111838.062500", "111840.070000", "111842.077500", "111844.087500", "111846.095000", "111848.102500", "111850.110000", "111852.117500", "111854.127500", "111856.135000", "111858.142500", "111900.150000", "111902.160000", "111904.167500", "111906.175000", "111908.182500", "111910.190000", "111912.200000", "111914.207500", "111916.215000", "111918.222500", "111920.230000", "111922.240000", "111924.247500", "111926.255000", "111928.262500", "111930.272500", "111932.280000", "111934.287500", "111936.295000", "111938.302500", "111940.312500", "111942.320000", "111944.327500", "111946.335000", "111948.342500", "111950.352500", "111952.360000", "111954.367500", "111956.375000", "111958.385000", "112000.392500", "112002.400000", "112004.407500", "112006.415000", "112008.425000", "112010.432500", "112012.440000", "112014.447500", "112016.455000", "112018.465000", "112020.472500", "112022.480000", "112024.487500", "112026.495000", "112028.505000", "112030.512500", "112032.520000", "112034.527500", "112036.537500", "112038.545000", "112040.552500", "112042.560000", "112044.567500", "112046.577500", "112048.585000", "112050.592500", "112052.600000", "112054.607500", "112056.617500", "112058.625000", "112100.632500", "112102.640000", "112104.650000", "112106.657500", "112108.665000", "112110.672500", "112112.680000", "112114.690000", "112116.697500", "112118.705000", "112120.712500", "112122.720000", "112124.730000", "112126.737500", "112128.745000", "112130.752500", "112132.762500", "112134.770000", "112136.777500", "112138.785000", "112140.792500", "112142.802500", "112144.810000", "112146.817500", "112148.825000", "112150.832500", "112152.842500", "112154.850000", "112156.857500", "112158.865000", "112200.872500", "112202.882500", "112204.890000", "112206.897500", "112208.905000", "112210.915000", "112212.922500", "112214.930000", "112216.937500", "112218.945000", "112220.955000", "112222.962500", "112224.970000", "112226.977500", "112228.985000", "112230.995000", "112233.002500", "112235.010000", "112237.017500", "112239.027500", "112241.035000", "112243.042500", "112245.050000", "112247.057500", "112249.067500", "112251.075000", "112253.082500", "112255.090000", "112257.097500", "112259.107500", "112301.115000", "112303.122500", "112305.130000", "112307.140000", "112309.147500", "112311.155000", "112313.162500", "112315.170000", "112317.180000", "112319.187500", "112321.195000", "112323.202500", "112325.210000", "112327.220000", "112329.227500", "112331.235000", "112333.242500", "112335.252500", "112337.260000", "112339.267500", "112341.275000", "112343.282500", "112345.292500", "112347.300000", "112349.307500", "112351.315000", "112353.322500", "112355.332500", "112357.340000", "112359.347500", "112401.355000", "112403.362500", "112405.372500", "112407.380000", "112409.387500", "112411.395000", "112413.405000", "112415.412500", "112417.420000", "112419.427500", "112421.435000", "112423.445000", "112425.452500", "112427.460000", "112429.467500", "112431.475000", "112433.485000", "112435.492500", "112437.500000", "112439.507500", "112441.517500", "112443.525000", "112445.532500", "112447.540000", "112449.547500", "112451.557500", "112453.565000", "112455.572500", "112457.580000", "112459.587500", "112501.597500", "112503.605000", "112505.612500", "112507.620000", "112509.630000", "112511.637500", "112513.645000", "112515.652500", "112517.660000", "112519.670000", "112521.677500", "112523.685000", "112525.692500", "112527.700000", "112529.710000", "112531.717500", "112533.725000", "112535.732500", "112537.740000", "112539.750000", "112541.757500", "112543.765000", "112545.772500", "112547.782500", "112549.790000", "112551.797500", "112553.805000", "112555.812500", "112557.822500", "112559.830000", "112601.837500", "112603.845000", "112605.852500", "112607.862500", "112609.870000", "112611.877500", "112613.885000", "112615.895000", "112617.902500", "112619.910000", "112621.917500", "112623.925000", "112625.935000", "112627.942500", "112629.950000", "112631.957500", "112633.965000", "112635.975000", "112637.982500", "112639.990000", "112641.997500", "112644.007500", "112646.015000", "112648.022500", "112650.030000", "112652.037500", "112654.047500", "112656.055000", "112658.062500", "112700.070000", "112702.077500", "112704.087500", "112706.095000", "112708.102500", "112710.110000", "112712.117500", "112714.127500", "112716.135000", "112718.142500", "112720.150000", "112722.160000", "112724.167500", "112726.175000", "112728.182500", "112730.190000", "112732.200000", "112734.207500", "112736.215000", "112738.222500", "112740.230000", "112742.240000", "112744.247500", "112746.255000", "112748.262500", "112750.272500", "112752.280000", "112754.287500", "112756.295000", "112758.302500", "112800.312500", "112802.320000", "112804.327500", "112806.335000", "112808.342500", "112810.352500", "112812.360000", "112814.367500", "112816.375000", "112818.385000", "112820.392500", "112822.400000", "112824.407500", "112826.415000", "112828.425000", "112830.432500", "112832.440000", "112834.447500", "112836.455000", "112838.465000", "112840.472500", "112842.480000", "112844.487500", "112846.495000", "112848.505000", "112850.512500", "112852.520000", "112854.527500", "112856.537500", "112858.545000", "112900.552500", "112902.560000", "112904.567500", "112906.577500", "112908.585000", "112910.592500", "112912.600000", "112914.607500", "112916.617500", "112918.625000", "112920.632500", "112922.640000", "112924.650000", "112926.657500", "112928.665000", "112930.672500", "112932.680000", "112934.690000", "112936.697500", "112938.705000", "112940.712500", "112942.720000", "112944.730000", "112946.737500", "112948.745000", "112950.752500", "112952.762500", "112954.770000", "112956.777500", "112958.785000", "113000.792500", "113002.802500", "113004.810000", "113006.817500", "113008.825000", "113010.832500", "113012.842500", "113014.850000", "113016.857500", "113018.865000", "113020.872500", "113022.882500", "113024.890000", "113026.897500", "113028.905000", "113030.915000", "113032.922500", "113034.930000", "113036.937500", "113038.945000", "113040.955000"],
      "ContentTime": ["111624.140000", "111624.140000", "111624.140000", "111624.140000", "111624.156000", "111624.156000", "111624.156000", "111624.156000", "111624.156000", "111624.156000", "111624.156000", "111624.171000", "111624.171000", "111624.171000", "111624.171000", "111624.171000", "111624.171000", "111624.171000", "111624.187000", "111624.187000", "111624.187000", "111624.187000", "111704.125000", "111704.125000", "111704.125000", "111704.125000", "111704.125000", "111704.140000", "111704.140000", "111704.140000", "111704.140000", "111704.140000", "111704.140000", "111704.140000", "111704.156000", "111704.156000", "111704.156000", "111704.156000", "111704.171000", "111704.171000", "111704.171000", "111704.171000", "111744.125000", "111744.125000", "111744.125000", "111744.125000", "111744.125000", "111744.125000", "111744.140000", "111744.140000", "111744.140000", "111744.140000", "111744.140000", "111744.140000", "111744.140000", "111744.156000", "111744.156000", "111744.156000", "111744.156000", "111744.156000", "111744.156000", "111744.156000", "111824.125000", "111824.125000", "111824.125000", "111824.125000", "111824.125000", "111824.140000", "111824.140000", "111824.140000", "111824.140000", "111824.140000", "111824.140000", "111824.140000", "111824.140000", "111824.156000", "111824.156000", "111824.156000", "111824.156000", "111824.156000", "111824.156000", "111824.156000", "111904.125000", "111904.125000", "111904.125000", "111904.140000", "111904.140000", "111904.140000", "111904.156000", "111904.156000", "111904.156000", "111904.156000", "111904.156000", "111904.156000", "111904.171000", "111904.171000", "111904.171000", "111904.171000", "111904.171000", "111904.171000", "111904.171000", "111904.187000", "111944.125000", "111944.125000", "111944.125000", "111944.125000", "111944.125000", "111944.140000", "111944.140000", "111944.140000", "111944.140000", "111944.140000", "111944.140000", "111944.140000", "111944.140000", "111944.156000", "111944.156000", "111944.156000", "111944.156000", "111944.156000", "111944.156000", "111944.156000", "112024.125000", "112024.125000", "112024.125000", "112024.125000", "112024.125000", "112024.125000", "112024.140000", "112024.140000", "112024.140000", "112024.140000", "112024.156000", "112024.156000", "112024.156000", "112024.156000", "112024.156000", "112024.156000", "112024.171000", "112024.171000", "112024.171000", "112024.171000", "112104.125000", "112104.125000", "112104.125000", "112104.125000", "112104.125000", "112104.125000", "112104.140000", "112104.140000", "112104.140000", "112104.140000", "112104.140000", "112104.140000", "112104.140000", "112104.156000", "112104.156000", "112104.156000", "112104.156000", "112104.156000", "112104.171000", "112104.171000", "112144.125000", "112144.125000", "112144.125000", "112144.125000", "112144.125000", "112144.140000", "112144.140000", "112144.156000", "112144.156000", "112144.156000", "112144.156000", "112144.156000", "112144.156000", "112144.171000", "112144.171000", "112144.171000", "112144.171000", "112144.187000", "112144.187000", "112144.187000", "112224.125000", "112224.125000", "112224.125000", "112224.140000", "112224.140000", "112224.140000", "112224.140000", "112224.140000", "112224.156000", "112224.156000", "112224.156000", "112224.156000", "112224.156000", "112224.156000", "112224.156000", "112224.171000", "112224.171000", "112224.171000", "112224.171000", "112224.171000", "112304.125000", "112304.125000", "112304.125000", "112304.125000", "112304.125000", "112304.125000", "112304.140000", "112304.140000", "112304.140000", "112304.140000", "112304.140000", "112304.140000", "112304.140000", "112304.156000", "112304.156000", "112304.156000", "112304.156000", "112304.156000", "112304.156000", "112304.156000", "112344.125000", "112344.125000", "112344.125000", "112344.125000", "112344.125000", "112344.125000", "112344.140000", "112344.140000", "112344.140000", "112344.140000", "112344.140000", "112344.140000", "112344.140000", "112344.156000", "112344.156000", "112344.156000", "112344.156000", "112344.156000", "112344.171000", "112344.171000", "112424.125000", "112424.125000", "112424.125000", "112424.125000", "112424.125000", "112424.125000", "112424.140000", "112424.140000", "112424.140000", "112424.156000", "112424.156000", "112424.156000", "112424.156000", "112424.156000", "112424.156000", "112424.156000", "112424.156000", "112424.171000", "112424.171000", "112424.171000", "112504.125000", "112504.125000", "112504.125000", "112504.125000", "112504.125000", "112504.125000", "112504.140000", "112504.140000", "112504.140000", "112504.140000", "112504.156000", "112504.156000", "112504.156000", "112504.156000", "112504.156000", "112504.156000", "112504.156000", "112504.156000", "112504.171000", "112504.171000", "112544.125000", "112544.125000", "112544.125000", "112544.125000", "112544.125000", "112544.125000", "112544.140000", "112544.140000", "112544.140000", "112544.140000", "112544.140000", "112544.140000", "112544.140000", "112544.156000", "112544.156000", "112544.156000", "112544.156000", "112544.156000", "112544.171000", "112544.171000", "112624.125000", "112624.125000", "112624.125000", "112624.125000", "112624.125000", "112624.125000", "112624.140000", "112624.140000", "112624.140000", "112624.140000", "112624.140000", "112624.140000", "112624.140000", "112624.156000", "112624.156000", "112624.156000", "112624.156000", "112624.156000", "112624.156000", "112624.156000", "112704.125000", "112704.125000", "112704.125000", "112704.125000", "112704.125000", "112704.140000", "112704.140000", "112704.140000", "112704.140000", "112704.140000", "112704.140000", "112704.140000", "112704.156000", "112704.156000", "112704.156000", "112704.156000", "112704.156000", "112704.156000", "112704.156000", "112704.171000", "112744.125000", "112744.125000", "112744.125000", "112744.125000", "112744.125000", "112744.140000", "112744.140000", "112744.140000", "112744.140000", "112744.140000", "112744.140000", "112744.140000", "112744.156000", "112744.156000", "112744.156000", "112744.156000", "112744.156000", "112744.156000", "112744.156000", "112744.171000", "112824.125000", "112824.125000", "112824.125000", "112824.125000", "112824.125000", "112824.140000", "112824.140000", "112824.140000", "112824.156000", "112824.156000", "112824.156000", "112824.156000", "112824.156000", "112824.156000", "112824.156000", "112824.171000", "112824.171000", "112824.171000", "112824.171000", "112824.171000", "112904.125000", "112904.125000", "112904.125000", "112904.125000", "112904.125000", "112904.140000", "112904.140000", "112904.140000", "112904.140000", "112904.140000", "112904.140000", "112904.140000", "112904.156000", "112904.156000", "112904.156000", "112904.156000", "112904.171000", "112904.171000", "112904.171000", "112904.171000", "112944.125000", "112944.125000", "112944.125000", "112944.125000", "112944.125000", "112944.140000", "112944.140000", "112944.140000", "112944.140000", "112944.140000", "112944.156000", "112944.156000", "112944.156000", "112944.156000", "112944.156000", "112944.156000", "112944.171000", "112944.171000", "112944.171000", "112944.171000", "113024.125000", "113024.125000", "113024.125000", "113024.125000", "113024.125000", "113024.140000", "113024.140000", "113024.140000", "113024.140000", "113024.140000", "113024.140000", "113024.140000", "113024.156000", "113024.156000", "113024.156000", "113024.156000", "113024.171000", "113024.171000", "113024.171000", "113024.171000", "113038.734000", "113038.734000", "113038.734000", "113038.750000", "113038.750000", "113038.750000", "113038.750000", "113038.750000"],
