{
  "AcquisitionMatrixPE": 72,
  "AcquisitionNumber": 1,
  "AcquisitionTime": "10:12:52.302500",
  "BandwidthPerPixelPhaseEncode": 28.935,
  "BaseResolution": 72,
  "CoilString": "C:HEA;HEP",
  "ConversionSoftware": "dcm2niix",
  "ConversionSoftwareVersion": "v1.0.20190410  GCC6.3.0",
  "DerivedVendorReportedEchoSpacing": 0.000480003,
  "DeviceSerialNumber": "35149",
  "DwellTime": 2.9e-06,
  "EchoTime": 0.025,
  "EffectiveEchoSpacing": 0.000480003,
  "FlipAngle": 75,
  "ImageOrientationPatientDICOM": [0.99998, -0.00531577, 0.0035329, 0.00637888, 0.813209, -0.581936],
  "ImageType": [
    "ORIGINAL",
    "PRIMARY",
    "M",
    "ND",
    "MOSAIC"
],
  "ImagingFrequency": 123.255,
  "InPlanePhaseEncodingDirectionDICOM": "COL",
  "InstitutionAddress": "Street_StreetNo_Rehovot_91E162_District_IL_ZIP",
  "InstitutionName": "Weizmann",
  "InstitutionalDepartmentName": "Department",
  "MRAcquisitionType": "2D",
  "MagneticFieldStrength": 3,
  "Manufacturer": "Siemens",
  "ManufacturersModelName": "TrioTim",
  "Modality": "MR",
  "PartialFourier": 1,
  "PatientPosition": "HFS",
  "PercentPhaseFOV": 100,
  "PhaseEncodingDirection": "j-",
  "PhaseEncodingSteps": 72,
  "PhaseResolution": 1,
  "PixelBandwidth": 2395,
  "ProcedureStepDescription": "Weizmann_Sobel",
  "ProtocolName": "exp1_30_to_AC-PC",
  "PulseSequenceDetails": "%SiemensSeq%_ep2d_pace",
  "ReceiveCoilName": "HeadMatrix",
  "ReconMatrixPE": 72,
  "RepetitionTime": 2,
  "SAR": 0.11994,
  "ScanOptions": "FS",
  "ScanningSequence": "EP",
  "SequenceName": "_epfid2d1_72",
  "SequenceVariant": "SK",
  "SeriesDescription": "exp1_30_to_AC-PC",
  "SeriesNumber": 3,
  "ShimSetting": [2362, 9362, -5718, 317, 264, -988, -321, 170],
  "SliceThickness": 3.7,
  "SliceTiming": [0.9925, 0, 1.05, 0.0575, 1.11, 0.115, 1.1675, 0.175, 1.2275, 0.2325, 1.285, 0.2925, 1.3425, 0.35, 1.4025, 0.4075, 1.46, 0.4675, 1.52, 0.525, 1.5775, 0.5825, 1.635, 0.6425, 1.695, 0.7, 1.7525, 0.76, 1.81, 0.8175, 1.87, 0.875, 1.9275, 0.935],
  "SoftwareVersions": "syngo_MR_B17",
  "SpacingBetweenSlices": 3.7,
  "StationName": "MRC35149",
  "TaskName": "bodyodor",
  "TotalReadoutTime": 0.0340802,
  "TxRefAmp": 281.631,
  "VendorReportedEchoSpacing": 0.00048,
  "dcmmeta_affine": [
    [-2.99993896484375, 0.01913665235042572, -0.0008156744297593832, 107.466552734375],
    [0.01594730280339718, 2.4396278858184814, -2.1532044410705566, -54.26881408691406],
    [0.010598696768283844, 1.7458093166351318, 3.0089385509490967, -116.56920623779297],
    [0.0, 0.0, 0.0, 1.0]
],
  "dcmmeta_reorient_transform": [
    [0.0, -1.0, 0.0, 71.0],
    [1.0, 0.0, 0.0, 0.0],
    [0.0, 0.0, 1.0, 0.0],
    [0.0, 0.0, 0.0, 1.0]
],
  "dcmmeta_shape": [72, 72, 34, 450],
  "dcmmeta_slice_dim": 2,
  "dcmmeta_version": 0.6,
  "global": {
    "const": {
      "AcquisitionMatrix": [72, 0, 0, 72],
      "AngioFlag": "N",
      "BitsAllocated": 16,
      "BitsStored": 12,
      "Columns": 432,
      "EchoNumbers": 1,
      "EchoTime": 25.0,
      "EchoTrainLength": 1,
      "FlipAngle": 75.0,
      "HighBit": 11,
      "ImageOrientationPatient": [0.99997963041293, -0.0053157674422, 0.00353289905265, 0.00637888390641, 0.81320925658724, -0.5819364353956],
      "ImagePositionPatient": [-652.25885303182, -555.20724170817, 319.72116766717],
      "ImageType": [
        "ORIGINAL",
        "PRIMARY",
        "M",
        "ND",
        "MOSAIC"
],
      "ImagedNucleus": "1H",
      "ImagingFrequency": 123.254709,
      "InPlanePhaseEncodingDirection": "COL",
      "MRAcquisitionType": "2D",
      "MagneticFieldStrength": 3.0,
      "Manufacturer": "SIEMENS",
      "ManufacturerModelName": "TrioTim",
      "Modality": "MR",
      "NumberOfAverages": 1.0,
      "NumberOfPhaseEncodingSteps": 72,
      "PercentPhaseFieldOfView": 100.0,
      "PercentSampling": 100.0,
      "PerformedProcedureStepStartTime": "100735.843000",
      "PhotometricInterpretation": "MONOCHROME2",
      "PixelBandwidth": 2395.0,
      "PixelRepresentation": 0,
      "PixelSpacing": [3.0, 3.0],
      "ProtocolName": "exp1_30_to_AC-PC",
      "RepetitionTime": 2000.0,
      "Rows": 432,
      "SAR": 0.11994009093027,
      "SamplesPerPixel": 1,
      "ScanOptions": "FS",
      "ScanningSequence": "EP",
      "SequenceName": "*epfid2d1_72",
      "SequenceVariant": "SK",
      "SeriesDescription": "exp1_30_to_AC-PC",
      "SeriesNumber": 3,
      "SeriesTime": "101350.046000",
      "SliceLocation": -63.239287780939,
      "SliceThickness": 3.7000000476837,
      "SmallestImagePixelValue": 0,
      "SoftwareVersions": "syngo MR B17",
      "SpacingBetweenSlices": 3.7000000130331,
      "SpecificCharacterSet": "ISO_IR 100",
      "StudyID": "1",
      "StudyTime": "100735.750000",
      "TransmitCoilName": "Body",
      "VariableFlipAngleFlag": "N",
      "WindowCenterWidthExplanation": "Algo1",
      "dBdt": 0.0},
    "slices": {}
  },
  "time": {
    "samples": {
      "AcquisitionNumber": [1, 2, 3, 4, 5, 6, 7, 8, 9, 10, 11, 12, 13, 14, 15, 16, 17, 18, 19, 20, 21, 22, 23, 24, 25, 26, 27, 28, 29, 30, 31, 32, 33, 34, 35, 36, 37, 38, 39, 40, 41, 42, 43, 44, 45, 46, 47, 48, 49, 50, 51, 52, 53, 54, 55, 56, 57, 58, 59, 60, 61, 62, 63, 64, 65, 66, 67, 68, 69, 70, 71, 72, 73, 74, 75, 76, 77, 78, 79, 80, 81, 82, 83, 84, 85, 86, 87, 88, 89, 90, 91, 92, 93, 94, 95, 96, 97, 98, 99, 100, 101, 102, 103, 104, 105, 106, 107, 108, 109, 110, 111, 112, 113, 114, 115, 116, 117, 118, 119, 120, 121, 122, 123, 124, 125, 126, 127, 128, 129, 130, 131, 132, 133, 134, 135, 136, 137, 138, 139, 140, 141, 142, 143, 144, 145, 146, 147, 148, 149, 150, 151, 152, 153, 154, 155, 156, 157, 158, 159, 160, 161, 162, 163, 164, 165, 166, 167, 168, 169, 170, 171, 172, 173, 174, 175, 176, 177, 178, 179, 180, 181, 182, 183, 184, 185, 186, 187, 188, 189, 190, 191, 192, 193, 194, 195, 196, 197, 198, 199, 200, 201, 202, 203, 204, 205, 206, 207, 208, 209, 210, 211, 212, 213, 214, 215, 216, 217, 218, 219, 220, 221, 222, 223, 224, 225, 226, 227, 228, 229, 230, 231, 232, 233, 234, 235, 236, 237, 238, 239, 240, 241, 242, 243, 244, 245, 246, 247, 248, 249, 250, 251, 252, 253, 254, 255, 256, 257, 258, 259, 260, 261, 262, 263, 264, 265, 266, 267, 268, 269, 270, 271, 272, 273, 274, 275, 276, 277, 278, 279, 280, 281, 282, 283, 284, 285, 286, 287, 288, 289, 290, 291, 292, 293, 294, 295, 296, 297, 298, 299, 300, 301, 302, 303, 304, 305, 306, 307, 308, 309, 310, 311, 312, 313, 314, 315, 316, 317, 318, 319, 320, 321, 322, 323, 324, 325, 326, 327, 328, 329, 330, 331, 332, 333, 334, 335, 336, 337, 338, 339, 340, 341, 342, 343, 344, 345, 346, 347, 348, 349, 350, 351, 352, 353, 354, 355, 356, 357, 358, 359, 360, 361, 362, 363, 364, 365, 366, 367, 368, 369, 370, 371, 372, 373, 374, 375, 376, 377, 378, 379, 380, 381, 382, 383, 384, 385, 386, 387, 388, 389, 390, 391, 392, 393, 394, 395, 396, 397, 398, 399, 400, 401, 402, 403, 404, 405, 406, 407, 408, 409, 410, 411, 412, 413, 414, 415, 416, 417, 418, 419, 420, 421, 422, 423, 424, 425, 426, 427, 428, 429, 430, 431, 432, 433, 434, 435, 436, 437, 438, 439, 440, 441, 442, 443, 444, 445, 446, 447, 448, 449, 450],
      "AcquisitionTime": ["101252.302500", "101254.310000", "101256.320000", "101258.327500", "101300.335000", "101302.342500", "101304.350000", "101306.360000", "101308.367500", "101310.375000", "101312.382500", "101314.390000", "101316.400000", "101318.407500", "101320.415000", "101322.422500", "101324.432500", "101326.440000", "101328.447500", "101330.455000", "101332.462500", "101334.472500", "101336.480000", "101338.487500", "101340.495000", "101342.502500", "101344.512500", "101346.520000", "101348.527500", "101350.535000", "101352.542500", "101354.552500", "101356.560000", "101358.567500", "101400.575000", "101402.585000", "101404.592500", "101406.600000", "101408.607500", "101410.615000", "101412.625000", "101414.632500", "101416.640000", "101418.647500", "101420.655000", "101422.665000", "101424.672500", "101426.680000", "101428.687500", "101430.697500", "101432.705000", "101434.712500", "101436.720000", "101438.727500", "101440.737500", "101442.745000", "101444.752500", "101446.760000", "101448.767500", "101450.777500", "101452.785000", "101454.792500", "101456.800000", "101458.810000", "101500.817500", "101502.825000", "101504.832500", "101506.840000", "101508.850000", "101510.857500", "101512.865000", "101514.872500", "101516.880000", "101518.890000", "101520.897500", "101522.905000", "101524.912500", "101526.922500", "101528.930000", "101530.937500", "101532.945000", "101534.952500", "101536.962500", "101538.970000", "101540.977500", "101542.985000", "101544.992500", "101547.002500", "101549.010000", "101551.017500", "101553.025000", "101555.032500", "101557.042500", "101559.050000", "101601.057500", "101603.065000", "101605.075000", "101607.082500", "101609.090000", "101611.097500", "101613.105000", "101615.115000", "101617.122500", "101619.130000", "101621.137500", "101623.145000", "101625.155000", "101627.162500", "101629.170000", "101631.177500", "101633.187500", "101635.195000", "101637.202500", "101639.210000", "101641.217500", "101643.227500", "101645.235000", "101647.242500", "101649.250000", "101651.257500", "101653.267500", "101655.275000", "101657.282500", "101659.290000", "101701.300000", "101703.307500", "101705.315000", "101707.322500", "101709.330000", "101711.340000", "101713.347500", "101715.355000", "101717.362500", "101719.370000", "101721.380000", "101723.387500", "101725.395000", "101727.402500", "101729.410000", "101731.420000", "101733.427500", "101735.435000", "101737.442500", "101739.452500", "101741.460000", "101743.467500", "101745.475000", "101747.482500", "101749.492500", "101751.500000", "101753.507500", "101755.515000", "101757.522500", "101759.532500", "101801.540000", "101803.547500", "101805.555000", "101807.565000", "101809.572500", "101811.580000", "101813.587500", "101815.595000", "101817.605000", "101819.612500", "101821.620000", "101823.627500", "101825.635000", "101827.645000", "101829.652500", "101831.660000", "101833.667500", "101835.677500", "101837.685000", "101839.692500", "101841.700000", "101843.707500", "101845.717500", "101847.725000", "101849.732500", "101851.740000", "101853.747500", "101855.757500", "101857.765000", "101859.772500", "101901.780000", "101903.787500", "101905.797500", "101907.805000", "101909.812500", "101911.820000", "101913.830000", "101915.837500", "101917.845000", "101919.852500", "101921.860000", "101923.870000", "101925.877500", "101927.885000", "101929.892500", "101931.900000", "101933.910000", "101935.917500", "101937.925000", "101939.932500", "101941.942500", "101943.950000", "101945.957500", "101947.965000", "101949.972500", "101951.982500", "101953.990000", "101955.997500", "101958.005000", "102000.012500", "102002.022500", "102004.030000", "102006.037500", "102008.045000", "102010.055000", "102012.062500", "102014.070000", "102016.077500", "102018.085000", "102020.095000", "102022.102500", "102024.110000", "102026.117500", "102028.125000", "102030.135000", "102032.142500", "102034.150000", "102036.157500", "102038.165000", "102040.175000", "102042.182500", "102044.190000", "102046.197500", "102048.207500", "102050.215000", "102052.222500", "102054.230000", "102056.237500", "102058.247500", "102100.255000", "102102.262500", "102104.270000", "102106.277500", "102108.287500", "102110.295000", "102112.302500", "102114.310000", "102116.320000", "102118.327500", "102120.335000", "102122.342500", "102124.350000", "102126.360000", "102128.367500", "102130.375000", "102132.382500", "102134.390000", "102136.400000", "102138.407500", "102140.415000", "102142.422500", "102144.432500", "102146.440000", "102148.447500", "102150.455000", "102152.462500", "102154.472500", "102156.480000", "102158.487500", "102200.495000", "102202.502500", "102204.512500", "102206.520000", "102208.527500", "102210.535000", "102212.542500", "102214.552500", "102216.560000", "102218.567500", "102220.575000", "102222.585000", "102224.592500", "102226.600000", "102228.607500", "102230.615000", "102232.625000", "102234.632500", "102236.640000", "102238.647500", "102240.655000", "102242.665000", "102244.672500", "102246.680000", "102248.687500", "102250.697500", "102252.705000", "102254.712500", "102256.720000", "102258.727500", "102300.737500", "102302.745000", "102304.752500", "102306.760000", "102308.767500", "102310.777500", "102312.785000", "102314.792500", "102316.800000", "102318.810000", "102320.817500", "102322.825000", "102324.832500", "102326.840000", "102328.850000", "102330.857500", "102332.865000", "102334.872500", "102336.880000", "102338.890000", "102340.897500", "102342.905000", "102344.912500", "102346.922500", "102348.930000", "102350.937500", "102352.945000", "102354.952500", "102356.962500", "102358.970000", "102400.977500", "102402.985000", "102404.992500", "102407.002500", "102409.010000", "102411.017500", "102413.025000", "102415.032500", "102417.042500", "102419.050000", "102421.057500", "102423.065000", "102425.075000", "102427.082500", "102429.090000", "102431.097500", "102433.105000", "102435.115000", "102437.122500", "102439.130000", "102441.137500", "102443.145000", "102445.155000", "102447.162500", "102449.170000", "102451.177500", "102453.187500", "102455.195000", "102457.202500", "102459.210000", "102501.217500", "102503.227500", "102505.235000", "102507.242500", "102509.250000", "102511.257500", "102513.267500", "102515.275000", "102517.282500", "102519.290000", "102521.300000", "102523.307500", "102525.315000", "102527.322500", "102529.330000", "102531.340000", "102533.347500", "102535.355000", "102537.362500", "102539.370000", "102541.380000", "102543.387500", "102545.395000", "102547.402500", "102549.410000", "102551.420000", "102553.427500", "102555.435000", "102557.442500", "102559.452500", "102601.460000", "102603.467500", "102605.475000", "102607.482500", "102609.492500", "102611.500000", "102613.507500", "102615.515000", "102617.522500", "102619.532500", "102621.540000", "102623.547500", "102625.555000", "102627.565000", "102629.572500", "102631.580000", "102633.587500", "102635.595000", "102637.605000", "102639.612500", "102641.620000", "102643.627500", "102645.635000", "102647.645000", "102649.652500", "102651.660000", "102653.667500", "102655.677500", "102657.685000", "102659.692500", "102701.700000", "102703.707500", "102705.717500", "102707.725000", "102709.732500", "102711.740000", "102713.747500", "102715.757500", "102717.765000", "102719.772500", "102721.780000", "102723.787500", "102725.797500", "102727.805000", "102729.812500", "102731.820000", "102733.830000", "102735.837500", "102737.845000", "102739.852500", "102741.860000", "102743.870000", "102745.877500", "102747.885000", "102749.892500", "102751.900000", "102753.910000"],
      "ContentTime": ["101350.062000", "101350.062000", "101350.062000", "101350.062000", "101350.062000", "101350.078000", "101350.078000", "101350.078000", "101350.078000", "101350.078000", "101350.078000", "101350.078000", "101350.093000", "101350.093000", "101350.093000", "101350.093000", "101350.093000", "101350.093000", "101350.093000", "101350.109000", "101350.109000", "101350.109000", "101350.109000", "101350.109000", "101350.109000", "101350.109000", "101350.125000", "101350.125000", "101430.046000", "101430.046000", "101430.046000", "101430.046000", "101430.062000", "101430.062000", "101430.062000", "101430.062000", "101430.062000", "101430.062000", "101430.078000", "101430.078000", "101430.078000", "101430.078000", "101430.078000", "101430.093000", "101430.093000", "101430.093000", "101430.093000", "101430.093000", "101510.046000", "101510.046000", "101510.062000", "101510.062000", "101510.062000", "101510.062000", "101510.062000", "101510.078000", "101510.078000", "101510.078000", "101510.078000", "101510.078000", "101510.078000", "101510.078000", "101510.093000", "101510.093000", "101510.093000", "101510.093000", "101510.093000", "101510.109000", "101550.046000", "101550.046000", "101550.046000", "101550.046000", "101550.062000", "101550.062000", "101550.062000", "101550.062000", "101550.062000", "101550.062000", "101550.062000", "101550.078000", "101550.078000", "101550.078000", "101550.078000", "101550.078000", "101550.078000", "101550.078000", "101550.093000", "101550.093000", "101630.046000", "101630.046000", "101630.046000", "101630.062000", "101630.062000", "101630.062000", "101630.062000", "101630.062000", "101630.078000", "101630.078000", "101630.078000", "101630.078000", "101630.078000", "101630.078000", "101630.078000", "101630.093000", "101630.093000", "101630.093000", "101630.093000", "101630.093000", "101710.046000", "101710.046000", "101710.046000", "101710.046000", "101710.062000", "101710.062000", "101710.062000", "101710.062000", "101710.062000", "101710.062000", "101710.062000", "101710.078000", "101710.078000", "101710.078000", "101710.078000", "101710.078000", "101710.093000", "101710.093000", "101710.093000", "101710.093000", "101750.046000", "101750.046000", "101750.046000", "101750.046000", "101750.062000", "101750.062000", "101750.062000", "101750.062000", "101750.062000", "101750.078000", "101750.078000", "101750.078000", "101750.078000", "101750.078000", "101750.078000", "101750.093000", "101750.093000", "101750.093000", "101750.093000", "101750.109000", "101830.046000", "101830.046000", "101830.046000", "101830.062000", "101830.062000", "101830.062000", "101830.062000", "101830.062000", "101830.062000", "101830.062000", "101830.078000", "101830.078000", "101830.078000", "101830.078000", "101830.078000", "101830.078000", "101830.078000", "101830.093000", "101830.093000", "101830.109000", "101910.046000", "101910.046000", "101910.046000", "101910.062000", "101910.062000", "101910.062000", "101910.062000", "101910.062000", "101910.062000", "101910.078000", "101910.078000", "101910.078000", "101910.093000", "101910.093000", "101910.093000", "101910.093000", "101910.093000", "101910.093000", "101910.093000", "101910.109000", "101930.046000", "101930.046000", "101930.062000", "101930.062000", "101930.062000", "101930.062000", "101930.062000", "101930.078000", "101930.078000", "101930.078000", "102010.046000", "102010.046000", "102010.046000", "102010.046000", "102010.062000", "102010.062000", "102010.062000", "102010.062000", "102010.062000", "102010.062000", "102010.062000", "102010.078000", "102010.078000", "102010.078000", "102010.078000", "102010.093000", "102010.093000", "102010.093000", "102010.093000", "102010.093000", "102050.046000", "102050.046000", "102050.046000", "102050.062000", "102050.062000", "102050.062000", "102050.062000", "102050.062000", "102050.078000", "102050.078000", "102050.078000", "102050.078000", "102050.093000", "102050.093000", "102050.093000", "102050.093000", "102050.093000", "102050.093000", "102050.109000", "102050.109000", "102130.046000", "102130.046000", "102130.046000", "102130.046000", "102130.062000", "102130.062000", "102130.062000", "102130.062000", "102130.062000", "102130.062000", "102130.062000", "102130.078000", "102130.078000", "102130.078000", "102130.078000", "102130.078000", "102130.078000", "102130.093000", "102130.093000", "102130.093000", "102210.046000", "102210.046000", "102210.046000", "102210.046000", "102210.062000", "102210.062000", "102210.062000", "102210.062000", "102210.062000", "102210.062000", "102210.062000", "102210.078000", "102210.078000", "102210.078000", "102210.078000", "102210.078000", "102210.093000", "102210.093000", "102210.093000", "102210.093000", "102250.046000", "102250.046000", "102250.046000", "102250.062000", "102250.062000", "102250.062000", "102250.062000", "102250.062000", "102250.062000", "102250.062000", "102250.062000", "102250.078000", "102250.078000", "102250.078000", "102250.078000", "102250.187000", "102250.187000", "102250.187000", "102250.187000", "102250.187000", "102330.046000", "102330.046000", "102330.062000", "102330.062000", "102330.062000", "102330.062000", "102330.062000", "102330.062000", "102330.062000", "102330.078000", "102330.078000", "102330.078000", "102330.078000", "102330.078000", "102330.078000", "102330.093000", "102330.093000", "102330.093000", "102330.093000", "102330.093000", "102410.046000", "102410.046000", "102410.062000", "102410.062000", "102410.062000", "102410.062000", "102410.062000", "102410.062000", "102410.078000", "102410.078000", "102410.078000", "102410.093000", "102410.093000", "102410.093000", "102410.093000", "102410.093000", "102410.093000", "102410.109000", "102410.109000", "102410.109000", "102450.046000", "102450.046000", "102450.062000", "102450.062000", "102450.062000", "102450.062000", "102450.062000", "102450.062000", "102450.062000", "102450.078000", "102450.078000", "102450.078000", "102450.078000", "102450.078000", "102450.078000", "102450.093000", "102450.093000", "102450.093000", "102450.093000", "102450.093000", "102530.046000", "102530.062000", "102530.062000", "102530.062000", "102530.078000", "102530.078000", "102530.078000", "102530.078000", "102530.078000", "102530.093000", "102530.093000", "102530.093000", "102530.093000", "102530.093000", "102530.093000", "102530.093000", "102530.093000", "102530.109000", "102530.109000", "102530.109000", "102610.046000", "102610.046000", "102610.062000", "102610.062000", "102610.062000", "102610.062000", "102610.078000", "102610.078000", "102610.078000", "102610.078000", "102610.078000", "102610.078000", "102610.078000", "102610.093000", "102610.093000", "102610.093000", "102610.093000", "102610.093000", "102610.093000", "102610.093000", "102650.046000", "102650.046000", "102650.062000", "102650.062000", "102650.062000", "102650.062000", "102650.062000", "102650.062000", "102650.062000", "102650.078000", "102650.078000", "102650.078000", "102650.078000", "102650.078000", "102650.078000", "102650.078000", "102650.093000", "102650.093000", "102650.093000", "102650.093000", "102730.046000", "102730.046000", "102730.062000", "102730.062000", "102730.062000", "102730.062000", "102730.062000", "102730.062000", "102730.062000", "102730.078000", "102730.078000", "102730.078000", "102730.078000", "102730.093000", "102730.093000", "102730.109000", "102730.109000", "102730.109000", "102730.109000", "102730.125000", "102752.093000", "102752.109000", "102752.109000", "102752.109000", "102752.109000", "102752.109000", "102752.109000", "102752.125000", "102752.125000", "102752.125000", "102752.125000", "102752.140000"],
