{
  "AcquisitionMatrixPE": 72,
  "AcquisitionNumber": 1,
  "AcquisitionTime": "12:55:53.605000",
  "BandwidthPerPixelPhaseEncode": 28.935,
  "BaseResolution": 72,
  "CoilString": "C:HEA;HEP",
  "ConversionSoftware": "dcm2niix",
  "ConversionSoftwareVersion": "v1.0.20190410  GCC6.3.0",
  "DerivedVendorReportedEchoSpacing": 0.000480003,
  "DeviceSerialNumber": "35149",
  "DwellTime": 2.9e-06,
  "EchoTime": 0.025,
  "EffectiveEchoSpacing": 0.000480003,
  "FlipAngle": 75,
  "ImageOrientationPatientDICOM": [0.998769, -0.0187773, 0.045921, 0.0367798, 0.901435, -0.431349],
  "ImageType": [
    "ORIGINAL",
    "PRIMARY",
    "M",
    "ND",
    "MOSAIC"
],
  "ImagingFrequency": 123.254,
  "InPlanePhaseEncodingDirectionDICOM": "COL",
  "InstitutionAddress": "Street_StreetNo_Rehovot_91E162_District_IL_ZIP",
  "InstitutionName": "Weizmann",
  "InstitutionalDepartmentName": "Department",
  "MRAcquisitionType": "2D",
  "MagneticFieldStrength": 3,
  "Manufacturer": "Siemens",
  "ManufacturersModelName": "TrioTim",
  "Modality": "MR",
  "PartialFourier": 1,
  "PatientPosition": "HFS",
  "PercentPhaseFOV": 100,
  "PhaseEncodingDirection": "j-",
  "PhaseEncodingSteps": 72,
  "PhaseResolution": 1,
  "PixelBandwidth": 2395,
  "ProcedureStepDescription": "Weizmann_Sobel",
  "ProtocolName": "exp1_30_to_AC-PC",
  "PulseSequenceDetails": "%SiemensSeq%_ep2d_pace",
  "ReceiveCoilName": "HeadMatrix",
  "ReconMatrixPE": 72,
  "RepetitionTime": 2,
  "SAR": 0.143708,
  "ScanOptions": "FS",
  "ScanningSequence": "EP",
  "SequenceName": "_epfid2d1_72",
  "SequenceVariant": "SK",
  "SeriesDescription": "exp1_30_to_AC-PC",
  "SeriesNumber": 3,
  "ShimSetting": [2379, 9276, -5182, 334, 145, -648, 48, 93],
  "SliceThickness": 3.7,
  "SliceTiming": [0.995, 0, 1.0525, 0.0575, 1.11, 0.1175, 1.17, 0.175, 1.2275, 0.235, 1.285, 0.2925, 1.345, 0.35, 1.4025, 0.41, 1.4625, 0.4675, 1.52, 0.5275, 1.5775, 0.585, 1.6375, 0.6425, 1.695, 0.7025, 1.755, 0.76, 1.8125, 0.8175, 1.87, 0.8775, 1.93, 0.935],
  "SoftwareVersions": "syngo_MR_B17",
  "SpacingBetweenSlices": 3.7,
  "StationName": "MRC35149",
  "TaskName": "bodyodor",
  "TotalReadoutTime": 0.0340802,
  "TxRefAmp": 261.334,
  "VendorReportedEchoSpacing": 0.00048,
  "dcmmeta_affine": [
    [-2.9963057041168213, 0.11033945530653, 0.12319236248731613, 105.63151550292969],
    [0.056332048028707504, 2.70430588722229, -1.600273609161377, -62.32737731933594],
    [0.13776300847530365, 1.2940458059310913, 3.33375883102417, -65.56570434570312],
    [0.0, 0.0, 0.0, 1.0]
],
  "dcmmeta_reorient_transform": [
    [0.0, -1.0, 0.0, 71.0],
    [1.0, 0.0, 0.0, 0.0],
    [0.0, 0.0, 1.0, 0.0],
    [0.0, 0.0, 0.0, 1.0]
],
  "dcmmeta_shape": [72, 72, 34, 450],
  "dcmmeta_slice_dim": 2,
  "dcmmeta_version": 0.6,
  "global": {
    "const": {
      "AcquisitionMatrix": [72, 0, 0, 72],
      "AngioFlag": "N",
      "BitsAllocated": 16,
      "BitsStored": 12,
      "Columns": 432,
      "EchoNumbers": 1,
      "EchoTime": 25.0,
      "EchoTrainLength": 1,
      "FlipAngle": 75.0,
      "HighBit": 11,
      "ImageOrientationPatient": [0.99876857801988, -0.0187773493275, 0.04592100513247, 0.03677981837723, 0.90143531947494, -0.4313485942521],
      "ImagePositionPatient": [-672.66175084564, -606.31364868265, 234.44244342639],
      "ImageType": [
        "ORIGINAL",
        "PRIMARY",
        "M",
        "ND",
        "MOSAIC"
],
      "ImagedNucleus": "1H",
      "ImagingFrequency": 123.254155,
      "InPlanePhaseEncodingDirection": "COL",
      "MRAcquisitionType": "2D",
      "MagneticFieldStrength": 3.0,
      "Manufacturer": "SIEMENS",
      "ManufacturerModelName": "TrioTim",
      "Modality": "MR",
      "NumberOfAverages": 1.0,
      "NumberOfPhaseEncodingSteps": 72,
      "PercentPhaseFieldOfView": 100.0,
      "PercentSampling": 100.0,
      "PerformedProcedureStepStartTime": "125111.953000",
      "PhotometricInterpretation": "MONOCHROME2",
      "PixelBandwidth": 2395.0,
      "PixelRepresentation": 0,
      "PixelSpacing": [3.0, 3.0],
      "ProtocolName": "exp1_30_to_AC-PC",
      "RepetitionTime": 2000.0,
      "Rows": 432,
      "SAR": 0.14370769838399,
      "SamplesPerPixel": 1,
      "ScanOptions": "FS",
      "ScanningSequence": "EP",
      "SequenceName": "*epfid2d1_72",
      "SequenceVariant": "SK",
      "SeriesDescription": "exp1_30_to_AC-PC",
      "SeriesNumber": 3,
      "SeriesTime": "125643.890000",
      "SliceLocation": -28.601727779897,
      "SliceThickness": 3.7000000476837,
      "SmallestImagePixelValue": 0,
      "SoftwareVersions": "syngo MR B17",
      "SpacingBetweenSlices": 3.700000073042,
      "SpecificCharacterSet": "ISO_IR 100",
      "StudyID": "1",
      "StudyTime": "125111.906000",
      "TransmitCoilName": "Body",
      "VariableFlipAngleFlag": "N",
      "WindowCenterWidthExplanation": "Algo1",
      "dBdt": 0.0},
    "slices": {}
  },
  "time": {
    "samples": {
      "AcquisitionNumber": [1, 2, 3, 4, 5, 6, 7, 8, 9, 10, 11, 12, 13, 14, 15, 16, 17, 18, 19, 20, 21, 22, 23, 24, 25, 26, 27, 28, 29, 30, 31, 32, 33, 34, 35, 36, 37, 38, 39, 40, 41, 42, 43, 44, 45, 46, 47, 48, 49, 50, 51, 52, 53, 54, 55, 56, 57, 58, 59, 60, 61, 62, 63, 64, 65, 66, 67, 68, 69, 70, 71, 72, 73, 74, 75, 76, 77, 78, 79, 80, 81, 82, 83, 84, 85, 86, 87, 88, 89, 90, 91, 92, 93, 94, 95, 96, 97, 98, 99, 100, 101, 102, 103, 104, 105, 106, 107, 108, 109, 110, 111, 112, 113, 114, 115, 116, 117, 118, 119, 120, 121, 122, 123, 124, 125, 126, 127, 128, 129, 130, 131, 132, 133, 134, 135, 136, 137, 138, 139, 140, 141, 142, 143, 144, 145, 146, 147, 148, 149, 150, 151, 152, 153, 154, 155, 156, 157, 158, 159, 160, 161, 162, 163, 164, 165, 166, 167, 168, 169, 170, 171, 172, 173, 174, 175, 176, 177, 178, 179, 180, 181, 182, 183, 184, 185, 186, 187, 188, 189, 190, 191, 192, 193, 194, 195, 196, 197, 198, 199, 200, 201, 202, 203, 204, 205, 206, 207, 208, 209, 210, 211, 212, 213, 214, 215, 216, 217, 218, 219, 220, 221, 222, 223, 224, 225, 226, 227, 228, 229, 230, 231, 232, 233, 234, 235, 236, 237, 238, 239, 240, 241, 242, 243, 244, 245, 246, 247, 248, 249, 250, 251, 252, 253, 254, 255, 256, 257, 258, 259, 260, 261, 262, 263, 264, 265, 266, 267, 268, 269, 270, 271, 272, 273, 274, 275, 276, 277, 278, 279, 280, 281, 282, 283, 284, 285, 286, 287, 288, 289, 290, 291, 292, 293, 294, 295, 296, 297, 298, 299, 300, 301, 302, 303, 304, 305, 306, 307, 308, 309, 310, 311, 312, 313, 314, 315, 316, 317, 318, 319, 320, 321, 322, 323, 324, 325, 326, 327, 328, 329, 330, 331, 332, 333, 334, 335, 336, 337, 338, 339, 340, 341, 342, 343, 344, 345, 346, 347, 348, 349, 350, 351, 352, 353, 354, 355, 356, 357, 358, 359, 360, 361, 362, 363, 364, 365, 366, 367, 368, 369, 370, 371, 372, 373, 374, 375, 376, 377, 378, 379, 380, 381, 382, 383, 384, 385, 386, 387, 388, 389, 390, 391, 392, 393, 394, 395, 396, 397, 398, 399, 400, 401, 402, 403, 404, 405, 406, 407, 408, 409, 410, 411, 412, 413, 414, 415, 416, 417, 418, 419, 420, 421, 422, 423, 424, 425, 426, 427, 428, 429, 430, 431, 432, 433, 434, 435, 436, 437, 438, 439, 440, 441, 442, 443, 444, 445, 446, 447, 448, 449, 450],
      "AcquisitionTime": ["125553.605000", "125555.612500", "125557.620000", "125559.627500", "125601.635000", "125603.645000", "125605.652500", "125607.660000", "125609.667500", "125611.675000", "125613.685000", "125615.692500", "125617.700000", "125619.707500", "125621.717500", "125623.725000", "125625.732500", "125627.740000", "125629.747500", "125631.757500", "125633.765000", "125635.772500", "125637.780000", "125639.787500", "125641.797500", "125643.805000", "125645.812500", "125647.820000", "125649.830000", "125651.837500", "125653.845000", "125655.852500", "125657.860000", "125659.870000", "125701.877500", "125703.885000", "125705.892500", "125707.900000", "125709.910000", "125711.917500", "125713.925000", "125715.932500", "125717.942500", "125719.950000", "125721.957500", "125723.965000", "125725.972500", "125727.982500", "125729.990000", "125731.997500", "125734.005000", "125736.012500", "125738.022500", "125740.030000", "125742.037500", "125744.045000", "125746.055000", "125748.062500", "125750.070000", "125752.077500", "125754.085000", "125756.095000", "125758.102500", "125800.110000", "125802.117500", "125804.125000", "125806.135000", "125808.142500", "125810.150000", "125812.157500", "125814.165000", "125816.175000", "125818.182500", "125820.190000", "125822.197500", "125824.207500", "125826.215000", "125828.222500", "125830.230000", "125832.237500", "125834.247500", "125836.255000", "125838.262500", "125840.270000", "125842.277500", "125844.287500", "125846.295000", "125848.302500", "125850.310000", "125852.320000", "125854.327500", "125856.335000", "125858.342500", "125900.350000", "125902.360000", "125904.367500", "125906.375000", "125908.382500", "125910.390000", "125912.400000", "125914.407500", "125916.415000", "125918.422500", "125920.432500", "125922.440000", "125924.447500", "125926.455000", "125928.462500", "125930.472500", "125932.480000", "125934.487500", "125936.495000", "125938.502500", "125940.512500", "125942.520000", "125944.527500", "125946.535000", "125948.542500", "125950.552500", "125952.560000", "125954.567500", "125956.575000", "125958.585000", "130000.592500", "130002.600000", "130004.607500", "130006.615000", "130008.625000", "130010.632500", "130012.640000", "130014.647500", "130016.655000", "130018.665000", "130020.672500", "130022.680000", "130024.687500", "130026.697500", "130028.705000", "130030.712500", "130032.720000", "130034.727500", "130036.737500", "130038.745000", "130040.752500", "130042.760000", "130044.767500", "130046.777500", "130048.785000", "130050.792500", "130052.800000", "130054.810000", "130056.817500", "130058.825000", "130100.832500", "130102.840000", "130104.850000", "130106.857500", "130108.865000", "130110.872500", "130112.880000", "130114.890000", "130116.897500", "130118.905000", "130120.912500", "130122.920000", "130124.930000", "130126.937500", "130128.945000", "130130.952500", "130132.962500", "130134.970000", "130136.977500", "130138.985000", "130140.992500", "130143.002500", "130145.010000", "130147.017500", "130149.025000", "130151.032500", "130153.042500", "130155.050000", "130157.057500", "130159.065000", "130201.075000", "130203.082500", "130205.090000", "130207.097500", "130209.105000", "130211.115000", "130213.122500", "130215.130000", "130217.137500", "130219.145000", "130221.155000", "130223.162500", "130225.170000", "130227.177500", "130229.187500", "130231.195000", "130233.202500", "130235.210000", "130237.217500", "130239.227500", "130241.235000", "130243.242500", "130245.250000", "130247.257500", "130249.267500", "130251.275000", "130253.282500", "130255.290000", "130257.297500", "130259.307500", "130301.315000", "130303.322500", "130305.330000", "130307.340000", "130309.347500", "130311.355000", "130313.362500", "130315.370000", "130317.380000", "130319.387500", "130321.395000", "130323.402500", "130325.410000", "130327.420000", "130329.427500", "130331.435000", "130333.442500", "130335.452500", "130337.460000", "130339.467500", "130341.475000", "130343.482500", "130345.492500", "130347.500000", "130349.507500", "130351.515000", "130353.522500", "130355.532500", "130357.540000", "130359.547500", "130401.555000", "130403.565000", "130405.572500", "130407.580000", "130409.587500", "130411.595000", "130413.605000", "130415.612500", "130417.620000", "130419.627500", "130421.635000", "130423.645000", "130425.652500", "130427.660000", "130429.667500", "130431.675000", "130433.685000", "130435.692500", "130437.700000", "130439.707500", "130441.717500", "130443.725000", "130445.732500", "130447.740000", "130449.747500", "130451.757500", "130453.765000", "130455.772500", "130457.780000", "130459.787500", "130501.797500", "130503.805000", "130505.812500", "130507.820000", "130509.830000", "130511.837500", "130513.845000", "130515.852500", "130517.860000", "130519.870000", "130521.877500", "130523.885000", "130525.892500", "130527.900000", "130529.910000", "130531.917500", "130533.925000", "130535.932500", "130537.942500", "130539.950000", "130541.957500", "130543.965000", "130545.972500", "130547.982500", "130549.990000", "130551.997500", "130554.005000", "130556.012500", "130558.022500", "130600.030000", "130602.037500", "130604.045000", "130606.055000", "130608.062500", "130610.070000", "130612.077500", "130614.085000", "130616.095000", "130618.102500", "130620.110000", "130622.117500", "130624.125000", "130626.135000", "130628.142500", "130630.150000", "130632.157500", "130634.165000", "130636.175000", "130638.182500", "130640.190000", "130642.197500", "130644.207500", "130646.215000", "130648.222500", "130650.230000", "130652.237500", "130654.247500", "130656.255000", "130658.262500", "130700.270000", "130702.277500", "130704.287500", "130706.295000", "130708.302500", "130710.310000", "130712.320000", "130714.327500", "130716.335000", "130718.342500", "130720.350000", "130722.360000", "130724.367500", "130726.375000", "130728.382500", "130730.390000", "130732.400000", "130734.407500", "130736.415000", "130738.422500", "130740.432500", "130742.440000", "130744.447500", "130746.455000", "130748.462500", "130750.472500", "130752.480000", "130754.487500", "130756.495000", "130758.502500", "130800.512500", "130802.520000", "130804.527500", "130806.535000", "130808.542500", "130810.552500", "130812.560000", "130814.567500", "130816.575000", "130818.585000", "130820.592500", "130822.600000", "130824.607500", "130826.615000", "130828.625000", "130830.632500", "130832.640000", "130834.647500", "130836.655000", "130838.665000", "130840.672500", "130842.680000", "130844.687500", "130846.697500", "130848.705000", "130850.712500", "130852.720000", "130854.727500", "130856.737500", "130858.745000", "130900.752500", "130902.760000", "130904.767500", "130906.777500", "130908.785000", "130910.792500", "130912.800000", "130914.810000", "130916.817500", "130918.825000", "130920.832500", "130922.840000", "130924.850000", "130926.857500", "130928.865000", "130930.872500", "130932.880000", "130934.890000", "130936.897500", "130938.905000", "130940.912500", "130942.920000", "130944.930000", "130946.937500", "130948.945000", "130950.952500", "130952.962500", "130954.970000", "130956.977500", "130958.985000", "131000.992500", "131003.002500", "131005.010000", "131007.017500", "131009.025000", "131011.032500", "131013.042500", "131015.050000", "131017.057500", "131019.065000", "131021.075000", "131023.082500", "131025.090000", "131027.097500", "131029.105000", "131031.115000", "131033.122500", "131035.130000", "131037.137500", "131039.145000", "131041.155000", "131043.162500", "131045.170000", "131047.177500", "131049.187500", "131051.195000", "131053.202500", "131055.210000"],
      "ContentTime": ["125643.890000", "125643.890000", "125643.890000", "125643.890000", "125643.906000", "125643.906000", "125643.906000", "125643.906000", "125643.906000", "125643.906000", "125643.906000", "125643.921000", "125643.921000", "125643.921000", "125643.921000", "125643.921000", "125643.921000", "125643.921000", "125643.937000", "125643.937000", "125643.937000", "125643.937000", "125643.937000", "125643.937000", "125643.937000", "125723.875000", "125723.890000", "125723.890000", "125723.890000", "125723.890000", "125723.890000", "125723.890000", "125723.906000", "125723.906000", "125723.906000", "125723.906000", "125723.906000", "125723.906000", "125723.906000", "125723.921000", "125723.921000", "125723.921000", "125723.921000", "125723.921000", "125723.921000", "125803.875000", "125803.890000", "125803.890000", "125803.890000", "125803.890000", "125803.906000", "125803.906000", "125803.906000", "125803.906000", "125803.906000", "125803.906000", "125803.906000", "125803.921000", "125803.921000", "125803.921000", "125803.921000", "125803.921000", "125803.921000", "125803.937000", "125803.937000", "125843.875000", "125843.890000", "125843.890000", "125843.890000", "125843.890000", "125843.890000", "125843.890000", "125843.890000", "125843.906000", "125843.906000", "125843.906000", "125843.906000", "125843.906000", "125843.906000", "125843.906000", "125843.906000", "125843.921000", "125843.921000", "125843.921000", "125843.937000", "125923.875000", "125923.890000", "125923.890000", "125923.890000", "125923.890000", "125923.890000", "125923.890000", "125923.890000", "125923.906000", "125923.906000", "125923.906000", "125923.906000", "125923.906000", "125923.906000", "125923.921000", "125923.921000", "125923.921000", "125923.921000", "125923.921000", "125923.921000", "125943.875000", "125943.890000", "125943.890000", "125943.890000", "125943.890000", "125943.890000", "125943.906000", "125943.906000", "125943.906000", "125943.906000", "130023.875000", "130023.890000", "130023.890000", "130023.890000", "130023.890000", "130023.890000", "130023.890000", "130023.890000", "130023.906000", "130023.906000", "130023.906000", "130023.906000", "130023.906000", "130023.906000", "130023.906000", "130023.906000", "130023.921000", "130023.921000", "130023.921000", "130023.921000", "130103.875000", "130103.890000", "130103.890000", "130103.890000", "130103.890000", "130103.890000", "130103.890000", "130103.890000", "130103.906000", "130103.906000", "130103.906000", "130103.906000", "130103.906000", "130103.906000", "130103.906000", "130103.906000", "130103.921000", "130103.921000", "130103.921000", "130103.921000", "130143.875000", "130143.890000", "130143.890000", "130143.890000", "130143.890000", "130143.890000", "130143.890000", "130143.890000", "130143.906000", "130143.906000", "130143.906000", "130143.906000", "130143.906000", "130143.906000", "130143.906000", "130143.921000", "130143.921000", "130143.921000", "130143.921000", "130143.921000", "130223.875000", "130223.890000", "130223.890000", "130223.890000", "130223.890000", "130223.890000", "130223.890000", "130223.890000", "130223.906000", "130223.906000", "130223.906000", "130223.906000", "130223.921000", "130223.921000", "130223.921000", "130223.921000", "130223.921000", "130223.921000", "130223.921000", "130223.937000", "130303.875000", "130303.890000", "130303.890000", "130303.890000", "130303.890000", "130303.890000", "130303.906000", "130303.906000", "130303.906000", "130303.906000", "130303.906000", "130303.906000", "130303.921000", "130303.921000", "130303.921000", "130303.921000", "130303.921000", "130303.921000", "130303.937000", "130303.937000", "130343.875000", "130343.890000", "130343.890000", "130343.890000", "130343.890000", "130343.890000", "130343.906000", "130343.906000", "130343.906000", "130343.906000", "130343.921000", "130343.921000", "130343.921000", "130343.921000", "130343.921000", "130343.921000", "130343.921000", "130343.937000", "130343.937000", "130343.937000", "130423.875000", "130423.890000", "130423.890000", "130423.890000", "130423.890000", "130423.890000", "130423.890000", "130423.890000", "130423.906000", "130423.906000", "130423.906000", "130423.906000", "130423.906000", "130423.906000", "130423.906000", "130423.921000", "130423.921000", "130423.921000", "130423.921000", "130423.921000", "130503.875000", "130503.890000", "130503.890000", "130503.890000", "130503.890000", "130503.890000", "130503.890000", "130503.890000", "130503.906000", "130503.906000", "130503.906000", "130503.906000", "130503.906000", "130503.906000", "130503.906000", "130503.906000", "130503.921000", "130503.921000", "130503.921000", "130503.921000", "130543.875000", "130543.890000", "130543.890000", "130543.890000", "130543.890000", "130543.890000", "130543.890000", "130543.890000", "130543.906000", "130543.906000", "130543.906000", "130543.906000", "130543.906000", "130543.906000", "130543.906000", "130543.906000", "130543.921000", "130543.921000", "130543.921000", "130543.921000", "130623.875000", "130623.890000", "130623.890000", "130623.890000", "130623.890000", "130623.890000", "130623.890000", "130623.890000", "130623.906000", "130623.906000", "130623.906000", "130623.906000", "130623.906000", "130623.906000", "130623.921000", "130623.921000", "130623.921000", "130623.921000", "130623.921000", "130623.921000", "130703.875000", "130703.890000", "130703.890000", "130703.890000", "130703.890000", "130703.890000", "130703.890000", "130703.890000", "130703.906000", "130703.906000", "130703.906000", "130703.906000", "130703.906000", "130703.906000", "130703.906000", "130703.906000", "130703.921000", "130703.921000", "130703.921000", "130703.921000", "130743.875000", "130743.890000", "130743.890000", "130743.890000", "130743.890000", "130743.890000", "130743.906000", "130743.906000", "130743.906000", "130743.906000", "130743.906000", "130743.906000", "130743.906000", "130743.921000", "130743.921000", "130743.921000", "130743.921000", "130743.921000", "130743.921000", "130743.921000", "130823.875000", "130823.890000", "130823.890000", "130823.890000", "130823.890000", "130823.890000", "130823.906000", "130823.906000", "130823.906000", "130823.906000", "130823.906000", "130823.906000", "130823.921000", "130823.921000", "130823.921000", "130823.921000", "130823.921000", "130823.921000", "130823.921000", "130823.937000", "130903.875000", "130903.890000", "130903.890000", "130903.890000", "130903.890000", "130903.890000", "130903.890000", "130903.890000", "130903.906000", "130903.906000", "130903.906000", "130903.906000", "130903.906000", "130903.906000", "130903.906000", "130903.921000", "130903.921000", "130903.921000", "130903.921000", "130903.921000", "130943.875000", "130943.890000", "130943.890000", "130943.890000", "130943.890000", "130943.890000", "130943.890000", "130943.890000", "130943.906000", "130943.906000", "130943.906000", "130943.906000", "130943.906000", "130943.906000", "130943.906000", "130943.921000", "130943.921000", "130943.921000", "130943.921000", "130943.921000", "131023.875000", "131023.890000", "131023.906000", "131023.906000", "131023.906000", "131023.906000", "131023.906000", "131023.906000", "131023.906000", "131023.921000", "131023.921000", "131023.921000", "131023.921000", "131023.921000", "131023.921000", "131023.921000", "131023.921000", "131023.937000", "131023.937000", "131023.937000", "131052.437000", "131052.468000", "131052.468000", "131052.484000", "131052.484000", "131052.484000", "131052.484000", "131052.484000", "131052.484000", "131052.484000", "131052.500000", "131052.500000", "131052.500000", "131052.500000", "131052.500000"],
