{
  "AcquisitionMatrixPE": 72,
  "AcquisitionNumber": 1,
  "AcquisitionTime": "16:25:11.595000",
  "BandwidthPerPixelPhaseEncode": 28.935,
  "BaseResolution": 72,
  "CoilString": "C:HEA;HEP",
  "ConversionSoftware": "dcm2niix",
  "ConversionSoftwareVersion": "v1.0.20190410  GCC6.3.0",
  "DerivedVendorReportedEchoSpacing": 0.000480003,
  "DeviceSerialNumber": "35149",
  "DwellTime": 2.9e-06,
  "EchoTime": 0.025,
  "EffectiveEchoSpacing": 0.000480003,
  "FlipAngle": 75,
  "ImageOrientationPatientDICOM": [0.989942, 0.102479, 0.0975292, -0.0338534, 0.840965, -0.54003],
  "ImageType": [
    "ORIGINAL",
    "PRIMARY",
    "M",
    "ND",
    "MOSAIC"
],
  "ImagingFrequency": 123.255,
  "InPlanePhaseEncodingDirectionDICOM": "COL",
  "InstitutionAddress": "Street_StreetNo_Rehovot_91E162_District_IL_ZIP",
  "InstitutionName": "Weizmann",
  "InstitutionalDepartmentName": "Department",
  "MRAcquisitionType": "2D",
  "MagneticFieldStrength": 3,
  "Manufacturer": "Siemens",
  "ManufacturersModelName": "TrioTim",
  "Modality": "MR",
  "PartialFourier": 1,
  "PatientPosition": "HFS",
  "PercentPhaseFOV": 100,
  "PhaseEncodingDirection": "j-",
  "PhaseEncodingSteps": 72,
  "PhaseResolution": 1,
  "PixelBandwidth": 2395,
  "ProcedureStepDescription": "Weizmann_Sobel",
  "ProtocolName": "exp2_30_to_AC-PC",
  "PulseSequenceDetails": "%SiemensSeq%_ep2d_pace",
  "ReceiveCoilName": "HeadMatrix",
  "ReconMatrixPE": 72,
  "RepetitionTime": 2,
  "SAR": 0.142604,
  "ScanOptions": "FS",
  "ScanningSequence": "EP",
  "SequenceName": "_epfid2d1_72",
  "SequenceVariant": "SK",
  "SeriesDescription": "exp2_30_to_AC-PC",
  "SeriesNumber": 5,
  "ShimSetting": [2379, 9307, -5724, 224, 140, -1004, 188, 93],
  "SliceThickness": 3.7,
  "SliceTiming": [0.995, 0, 1.0525, 0.06, 1.1125, 0.1175, 1.17, 0.175, 1.2275, 0.235, 1.2875, 0.2925, 1.345, 0.3525, 1.4025, 0.41, 1.4625, 0.4675, 1.52, 0.5275, 1.58, 0.585, 1.6375, 0.6425, 1.695, 0.7025, 1.755, 0.76, 1.8125, 0.82, 1.87, 0.8775, 1.93, 0.935],
  "SoftwareVersions": "syngo_MR_B17",
  "SpacingBetweenSlices": 3.7,
  "StationName": "MRC35149",
  "TaskName": "bodyodor",
  "TotalReadoutTime": 0.0340802,
  "TxRefAmp": 325.162,
  "VendorReportedEchoSpacing": 0.00048,
  "dcmmeta_affine": [
    [-2.96982741355896, -0.1015600636601448, 0.5082342028617859, 109.69140625],
    [-0.30743834376335144, 2.5228936672210693, -1.96579909324646, -47.010658264160156],
    [0.29258760809898376, 1.620090365409851, 3.0931103229522705, -97.62447357177734],
    [0.0, 0.0, 0.0, 1.0]
],
  "dcmmeta_reorient_transform": [
    [0.0, -1.0, 0.0, 71.0],
    [1.0, 0.0, 0.0, 0.0],
    [0.0, 0.0, 1.0, 0.0],
    [0.0, 0.0, 0.0, 1.0]
],
  "dcmmeta_shape": [72, 72, 34, 450],
  "dcmmeta_slice_dim": 2,
  "dcmmeta_version": 0.6,
  "global": {
    "const": {
      "AcquisitionMatrix": [72, 0, 0, 72],
      "AngioFlag": "N",
      "BitsAllocated": 16,
      "BitsStored": 12,
      "Columns": 432,
      "EchoNumbers": 1,
      "EchoTime": 25.0,
      "EchoTrainLength": 1,
      "FlipAngle": 75.0,
      "HighBit": 11,
      "ImageOrientationPatient": [0.98994243187755, 0.10247944417341, 0.09752920121825, -0.0338533557451, 0.84096456572862, -0.5400301375791],
      "ImagePositionPatient": [-618.76874492724, -641.57455777198, 256.35245177829],
      "ImageType": [
        "ORIGINAL",
        "PRIMARY",
        "M",
        "ND",
        "MOSAIC"
],
      "ImagedNucleus": "1H",
      "ImagingFrequency": 123.254755,
      "InPlanePhaseEncodingDirection": "COL",
      "MRAcquisitionType": "2D",
      "MagneticFieldStrength": 3.0,
      "Manufacturer": "SIEMENS",
      "ManufacturerModelName": "TrioTim",
      "Modality": "MR",
      "NumberOfAverages": 1.0,
      "NumberOfPhaseEncodingSteps": 72,
      "PercentPhaseFieldOfView": 100.0,
      "PercentSampling": 100.0,
      "PerformedProcedureStepStartTime": "155133.328000",
      "PhotometricInterpretation": "MONOCHROME2",
      "PixelBandwidth": 2395.0,
      "PixelRepresentation": 0,
      "PixelSpacing": [3.0, 3.0],
      "ProtocolName": "exp2_30_to_AC-PC",
      "RepetitionTime": 2000.0,
      "Rows": 432,
      "SAR": 0.1426040197911,
      "SamplesPerPixel": 1,
      "ScanOptions": "FS",
      "ScanningSequence": "EP",
      "SequenceName": "*epfid2d1_72",
      "SequenceVariant": "SK",
      "SeriesDescription": "exp2_30_to_AC-PC",
      "SeriesNumber": 5,
      "SeriesTime": "162610.046000",
      "SliceLocation": -41.567793117297,
      "SliceThickness": 3.7000000476837,
      "SmallestImagePixelValue": 0,
      "SoftwareVersions": "syngo MR B17",
      "SpacingBetweenSlices": 3.6999999903559,
      "SpecificCharacterSet": "ISO_IR 100",
      "StudyID": "2",
      "StudyTime": "155133.265000",
      "TransmitCoilName": "Body",
      "VariableFlipAngleFlag": "N",
      "WindowCenterWidthExplanation": "Algo1",
      "dBdt": 0.0},
    "slices": {}
  },
  "time": {
    "samples": {
      "AcquisitionNumber": [1, 2, 3, 4, 5, 6, 7, 8, 9, 10, 11, 12, 13, 14, 15, 16, 17, 18, 19, 20, 21, 22, 23, 24, 25, 26, 27, 28, 29, 30, 31, 32, 33, 34, 35, 36, 37, 38, 39, 40, 41, 42, 43, 44, 45, 46, 47, 48, 49, 50, 51, 52, 53, 54, 55, 56, 57, 58, 59, 60, 61, 62, 63, 64, 65, 66, 67, 68, 69, 70, 71, 72, 73, 74, 75, 76, 77, 78, 79, 80, 81, 82, 83, 84, 85, 86, 87, 88, 89, 90, 91, 92, 93, 94, 95, 96, 97, 98, 99, 100, 101, 102, 103, 104, 105, 106, 107, 108, 109, 110, 111, 112, 113, 114, 115, 116, 117, 118, 119, 120, 121, 122, 123, 124, 125, 126, 127, 128, 129, 130, 131, 132, 133, 134, 135, 136, 137, 138, 139, 140, 141, 142, 143, 144, 145, 146, 147, 148, 149, 150, 151, 152, 153, 154, 155, 156, 157, 158, 159, 160, 161, 162, 163, 164, 165, 166, 167, 168, 169, 170, 171, 172, 173, 174, 175, 176, 177, 178, 179, 180, 181, 182, 183, 184, 185, 186, 187, 188, 189, 190, 191, 192, 193, 194, 195, 196, 197, 198, 199, 200, 201, 202, 203, 204, 205, 206, 207, 208, 209, 210, 211, 212, 213, 214, 215, 216, 217, 218, 219, 220, 221, 222, 223, 224, 225, 226, 227, 228, 229, 230, 231, 232, 233, 234, 235, 236, 237, 238, 239, 240, 241, 242, 243, 244, 245, 246, 247, 248, 249, 250, 251, 252, 253, 254, 255, 256, 257, 258, 259, 260, 261, 262, 263, 264, 265, 266, 267, 268, 269, 270, 271, 272, 273, 274, 275, 276, 277, 278, 279, 280, 281, 282, 283, 284, 285, 286, 287, 288, 289, 290, 291, 292, 293, 294, 295, 296, 297, 298, 299, 300, 301, 302, 303, 304, 305, 306, 307, 308, 309, 310, 311, 312, 313, 314, 315, 316, 317, 318, 319, 320, 321, 322, 323, 324, 325, 326, 327, 328, 329, 330, 331, 332, 333, 334, 335, 336, 337, 338, 339, 340, 341, 342, 343, 344, 345, 346, 347, 348, 349, 350, 351, 352, 353, 354, 355, 356, 357, 358, 359, 360, 361, 362, 363, 364, 365, 366, 367, 368, 369, 370, 371, 372, 373, 374, 375, 376, 377, 378, 379, 380, 381, 382, 383, 384, 385, 386, 387, 388, 389, 390, 391, 392, 393, 394, 395, 396, 397, 398, 399, 400, 401, 402, 403, 404, 405, 406, 407, 408, 409, 410, 411, 412, 413, 414, 415, 416, 417, 418, 419, 420, 421, 422, 423, 424, 425, 426, 427, 428, 429, 430, 431, 432, 433, 434, 435, 436, 437, 438, 439, 440, 441, 442, 443, 444, 445, 446, 447, 448, 449, 450],
      "AcquisitionTime": ["162511.595000", "162513.602500", "162515.610000", "162517.617500", "162519.627500", "162521.635000", "162523.642500", "162525.650000", "162527.657500", "162529.667500", "162531.675000", "162533.682500", "162535.690000", "162537.700000", "162539.707500", "162541.715000", "162543.722500", "162545.730000", "162547.740000", "162549.747500", "162551.755000", "162553.762500", "162555.770000", "162557.780000", "162559.787500", "162601.795000", "162603.802500", "162605.812500", "162607.820000", "162609.827500", "162611.835000", "162613.842500", "162615.852500", "162617.860000", "162619.867500", "162621.875000", "162623.882500", "162625.892500", "162627.900000", "162629.907500", "162631.915000", "162633.922500", "162635.932500", "162637.940000", "162639.947500", "162641.955000", "162643.965000", "162645.972500", "162647.980000", "162649.987500", "162651.995000", "162654.005000", "162656.012500", "162658.020000", "162700.027500", "162702.035000", "162704.045000", "162706.052500", "162708.060000", "162710.067500", "162712.077500", "162714.085000", "162716.092500", "162718.100000", "162720.107500", "162722.117500", "162724.125000", "162726.132500", "162728.140000", "162730.147500", "162732.157500", "162734.165000", "162736.172500", "162738.180000", "162740.190000", "162742.197500", "162744.205000", "162746.212500", "162748.220000", "162750.230000", "162752.237500", "162754.245000", "162756.252500", "162758.260000", "162800.270000", "162802.277500", "162804.285000", "162806.292500", "162808.300000", "162810.310000", "162812.317500", "162814.325000", "162816.332500", "162818.342500", "162820.350000", "162822.357500", "162824.365000", "162826.372500", "162828.382500", "162830.390000", "162832.397500", "162834.405000", "162836.412500", "162838.422500", "162840.430000", "162842.437500", "162844.445000", "162846.455000", "162848.462500", "162850.470000", "162852.477500", "162854.485000", "162856.495000", "162858.502500", "162900.510000", "162902.517500", "162904.525000", "162906.535000", "162908.542500", "162910.550000", "162912.557500", "162914.567500", "162916.575000", "162918.582500", "162920.590000", "162922.597500", "162924.607500", "162926.615000", "162928.622500", "162930.630000", "162932.637500", "162934.647500", "162936.655000", "162938.662500", "162940.670000", "162942.680000", "162944.687500", "162946.695000", "162948.702500", "162950.710000", "162952.720000", "162954.727500", "162956.735000", "162958.742500", "163000.750000", "163002.760000", "163004.767500", "163006.775000", "163008.782500", "163010.790000", "163012.800000", "163014.807500", "163016.815000", "163018.822500", "163020.832500", "163022.840000", "163024.847500", "163026.855000", "163028.862500", "163030.872500", "163032.880000", "163034.887500", "163036.895000", "163038.902500", "163040.912500", "163042.920000", "163044.927500", "163046.935000", "163048.945000", "163050.952500", "163052.960000", "163054.967500", "163056.975000", "163058.985000", "163100.992500", "163103.000000", "163105.007500", "163107.015000", "163109.025000", "163111.032500", "163113.040000", "163115.047500", "163117.057500", "163119.065000", "163121.072500", "163123.080000", "163125.087500", "163127.097500", "163129.105000", "163131.112500", "163133.120000", "163135.127500", "163137.137500", "163139.145000", "163141.152500", "163143.160000", "163145.167500", "163147.177500", "163149.185000", "163151.192500", "163153.200000", "163155.210000", "163157.217500", "163159.225000", "163201.232500", "163203.240000", "163205.250000", "163207.257500", "163209.265000", "163211.272500", "163213.280000", "163215.290000", "163217.297500", "163219.305000", "163221.312500", "163223.322500", "163225.330000", "163227.337500", "163229.345000", "163231.352500", "163233.362500", "163235.370000", "163237.377500", "163239.385000", "163241.392500", "163243.402500", "163245.410000", "163247.417500", "163249.425000", "163251.435000", "163253.442500", "163255.450000", "163257.457500", "163259.465000", "163301.475000", "163303.482500", "163305.490000", "163307.497500", "163309.505000", "163311.515000", "163313.522500", "163315.530000", "163317.537500", "163319.545000", "163321.555000", "163323.562500", "163325.570000", "163327.577500", "163329.587500", "163331.595000", "163333.602500", "163335.610000", "163337.617500", "163339.627500", "163341.635000", "163343.642500", "163345.650000", "163347.657500", "163349.667500", "163351.675000", "163353.682500", "163355.690000", "163357.700000", "163359.707500", "163401.715000", "163403.722500", "163405.730000", "163407.740000", "163409.747500", "163411.755000", "163413.762500", "163415.770000", "163417.780000", "163419.787500", "163421.795000", "163423.802500", "163425.812500", "163427.820000", "163429.827500", "163431.835000", "163433.842500", "163435.852500", "163437.860000", "163439.867500", "163441.875000", "163443.882500", "163445.892500", "163447.900000", "163449.907500", "163451.915000", "163453.922500", "163455.932500", "163457.940000", "163459.947500", "163501.955000", "163503.965000", "163505.972500", "163507.980000", "163509.987500", "163511.995000", "163514.005000", "163516.012500", "163518.020000", "163520.027500", "163522.035000", "163524.045000", "163526.052500", "163528.060000", "163530.067500", "163532.077500", "163534.085000", "163536.092500", "163538.100000", "163540.107500", "163542.117500", "163544.125000", "163546.132500", "163548.140000", "163550.147500", "163552.157500", "163554.165000", "163556.172500", "163558.180000", "163600.190000", "163602.197500", "163604.205000", "163606.212500", "163608.220000", "163610.230000", "163612.237500", "163614.245000", "163616.252500", "163618.260000", "163620.270000", "163622.277500", "163624.285000", "163626.292500", "163628.300000", "163630.310000", "163632.317500", "163634.325000", "163636.332500", "163638.342500", "163640.350000", "163642.357500", "163644.365000", "163646.372500", "163648.382500", "163650.390000", "163652.397500", "163654.405000", "163656.412500", "163658.422500", "163700.430000", "163702.437500", "163704.445000", "163706.455000", "163708.462500", "163710.470000", "163712.477500", "163714.485000", "163716.495000", "163718.502500", "163720.510000", "163722.517500", "163724.525000", "163726.535000", "163728.542500", "163730.550000", "163732.557500", "163734.567500", "163736.575000", "163738.582500", "163740.590000", "163742.597500", "163744.607500", "163746.615000", "163748.622500", "163750.630000", "163752.637500", "163754.647500", "163756.655000", "163758.662500", "163800.670000", "163802.680000", "163804.687500", "163806.695000", "163808.702500", "163810.710000", "163812.720000", "163814.727500", "163816.735000", "163818.742500", "163820.750000", "163822.760000", "163824.767500", "163826.775000", "163828.782500", "163830.790000", "163832.800000", "163834.807500", "163836.815000", "163838.822500", "163840.832500", "163842.840000", "163844.847500", "163846.855000", "163848.862500", "163850.872500", "163852.880000", "163854.887500", "163856.895000", "163858.902500", "163900.912500", "163902.920000", "163904.927500", "163906.935000", "163908.945000", "163910.952500", "163912.960000", "163914.967500", "163916.975000", "163918.985000", "163920.992500", "163923.000000", "163925.007500", "163927.015000", "163929.025000", "163931.032500", "163933.040000", "163935.047500", "163937.057500", "163939.065000", "163941.072500", "163943.080000", "163945.087500", "163947.097500", "163949.105000", "163951.112500", "163953.120000", "163955.127500", "163957.137500", "163959.145000", "164001.152500", "164003.160000", "164005.167500", "164007.177500", "164009.185000", "164011.192500", "164013.200000"],
      "ContentTime": ["162610.062000", "162610.062000", "162610.062000", "162610.062000", "162610.062000", "162610.078000", "162610.078000", "162610.078000", "162610.078000", "162610.093000", "162610.093000", "162610.093000", "162610.093000", "162610.093000", "162610.093000", "162610.093000", "162610.109000", "162610.109000", "162610.109000", "162610.109000", "162610.109000", "162610.109000", "162610.109000", "162610.109000", "162610.125000", "162610.125000", "162610.125000", "162610.125000", "162610.125000", "162650.046000", "162650.046000", "162650.062000", "162650.062000", "162650.062000", "162650.062000", "162650.062000", "162650.062000", "162650.062000", "162650.078000", "162650.078000", "162650.078000", "162650.078000", "162650.093000", "162650.093000", "162650.093000", "162650.093000", "162650.093000", "162650.093000", "162650.093000", "162730.046000", "162730.046000", "162730.062000", "162730.062000", "162730.062000", "162730.062000", "162730.062000", "162731.265000", "162731.265000", "162731.281000", "162731.312000", "162731.312000", "162731.312000", "162731.312000", "162731.312000", "162731.312000", "162731.328000", "162731.328000", "162731.328000", "162731.328000", "162810.046000", "162810.046000", "162810.062000", "162810.062000", "162810.062000", "162810.062000", "162810.062000", "162810.078000", "162810.078000", "162810.078000", "162810.078000", "162810.093000", "162810.093000", "162810.093000", "162810.093000", "162810.093000", "162810.093000", "162810.109000", "162810.109000", "162810.125000", "162850.046000", "162850.046000", "162850.062000", "162850.062000", "162850.062000", "162850.062000", "162850.062000", "162850.062000", "162850.062000", "162850.078000", "162850.078000", "162850.078000", "162850.078000", "162850.078000", "162850.078000", "162850.078000", "162850.093000", "162850.093000", "162850.093000", "162850.093000", "162930.046000", "162930.046000", "162930.062000", "162930.062000", "162930.062000", "162930.062000", "162930.062000", "162930.062000", "162930.078000", "162930.078000", "162930.078000", "162930.078000", "162930.078000", "162930.078000", "162930.078000", "162930.093000", "162930.093000", "162930.093000", "162930.093000", "162930.109000", "163010.046000", "163010.046000", "163010.062000", "163010.062000", "163010.062000", "163010.062000", "163010.062000", "163010.062000", "163010.078000", "163010.078000", "163010.078000", "163010.078000", "163010.078000", "163010.078000", "163010.093000", "163010.093000", "163010.093000", "163010.093000", "163010.093000", "163010.093000", "163050.046000", "163050.046000", "163050.062000", "163050.062000", "163050.062000", "163050.062000", "163050.062000", "163050.062000", "163050.062000", "163050.078000", "163050.078000", "163050.078000", "163050.078000", "163050.078000", "163050.078000", "163050.078000", "163050.093000", "163050.093000", "163050.093000", "163050.093000", "163130.046000", "163130.046000", "163130.062000", "163130.062000", "163130.062000", "163130.062000", "163130.062000", "163130.062000", "163130.062000", "163130.078000", "163130.078000", "163130.078000", "163130.078000", "163130.078000", "163130.078000", "163130.078000", "163130.093000", "163130.093000", "163130.093000", "163130.093000", "163210.046000", "163210.062000", "163210.062000", "163210.062000", "163210.062000", "163210.062000", "163210.062000", "163210.062000", "163210.078000", "163210.078000", "163210.078000", "163210.078000", "163210.078000", "163210.078000", "163210.078000", "163210.093000", "163210.093000", "163210.093000", "163210.093000", "163210.093000", "163250.046000", "163250.062000", "163250.062000", "163250.062000", "163250.062000", "163250.062000", "163250.062000", "163250.078000", "163250.078000", "163250.078000", "163250.078000", "163250.078000", "163250.078000", "163250.078000", "163250.093000", "163250.093000", "163250.093000", "163250.093000", "163250.093000", "163250.093000", "163330.046000", "163330.046000", "163330.062000", "163330.062000", "163330.062000", "163330.062000", "163330.078000", "163330.078000", "163330.078000", "163330.078000", "163330.078000", "163330.093000", "163330.093000", "163330.093000", "163330.093000", "163330.093000", "163330.093000", "163330.109000", "163330.109000", "163330.109000", "163410.046000", "163410.062000", "163410.062000", "163410.062000", "163410.062000", "163410.078000", "163410.078000", "163410.078000", "163410.078000", "163410.093000", "163410.093000", "163410.093000", "163410.093000", "163410.093000", "163410.093000", "163410.109000", "163410.109000", "163410.109000", "163410.109000", "163410.109000", "163450.046000", "163450.046000", "163450.062000", "163450.062000", "163450.062000", "163450.062000", "163450.062000", "163450.062000", "163450.062000", "163450.078000", "163450.078000", "163450.078000", "163450.078000", "163450.078000", "163450.078000", "163450.078000", "163450.093000", "163450.093000", "163450.093000", "163450.109000", "163530.046000", "163530.046000", "163530.062000", "163530.062000", "163530.078000", "163530.078000", "163530.078000", "163530.078000", "163530.078000", "163530.078000", "163530.093000", "163530.093000", "163530.093000", "163530.093000", "163530.093000", "163530.093000", "163530.109000", "163530.109000", "163530.109000", "163530.109000", "163610.062000", "163610.062000", "163610.062000", "163610.062000", "163610.062000", "163610.062000", "163610.062000", "163610.078000", "163610.078000", "163610.078000", "163610.078000", "163610.078000", "163610.078000", "163610.078000", "163610.093000", "163610.093000", "163610.093000", "163610.093000", "163610.093000", "163610.093000", "163650.062000", "163650.062000", "163650.062000", "163650.062000", "163650.062000", "163650.062000", "163650.062000", "163650.078000", "163650.078000", "163650.078000", "163650.078000", "163650.078000", "163650.078000", "163650.093000", "163650.093000", "163650.093000", "163650.093000", "163650.093000", "163650.093000", "163650.093000", "163730.062000", "163730.062000", "163730.062000", "163730.062000", "163730.062000", "163730.062000", "163730.062000", "163730.078000", "163730.078000", "163730.078000", "163730.078000", "163730.078000", "163730.078000", "163730.078000", "163730.093000", "163730.093000", "163730.093000", "163730.093000", "163730.093000", "163730.093000", "163810.062000", "163810.062000", "163810.062000", "163810.062000", "163810.062000", "163810.062000", "163810.062000", "163810.078000", "163810.078000", "163810.078000", "163810.078000", "163810.078000", "163810.078000", "163810.078000", "163810.093000", "163810.093000", "163810.093000", "163810.093000", "163810.093000", "163810.093000", "163850.062000", "163850.062000", "163850.062000", "163850.062000", "163850.062000", "163850.062000", "163850.062000", "163850.078000", "163850.078000", "163850.078000", "163850.078000", "163850.078000", "163850.078000", "163850.078000", "163850.093000", "163850.093000", "163850.093000", "163850.093000", "163850.109000", "163850.109000", "163930.062000", "163930.062000", "163930.062000", "163930.062000", "163930.062000", "163930.062000", "163930.062000", "163930.078000", "163930.078000", "163930.078000", "163930.093000", "163930.093000", "163930.093000", "163930.093000", "163930.093000", "163930.093000", "163930.093000", "163930.109000", "163930.109000", "163930.109000", "164010.062000", "164010.062000", "164010.062000", "164010.062000", "164010.078000", "164010.078000", "164010.078000", "164010.078000", "164010.078000", "164010.078000", "164010.078000", "164010.093000", "164010.093000", "164010.093000", "164010.093000", "164010.093000", "164010.109000", "164010.109000", "164010.109000", "164010.109000", "164011.187000"],
