{
  "AcquisitionMatrixPE": 72,
  "AcquisitionNumber": 1,
  "AcquisitionTime": "16:04:34.040000",
  "BandwidthPerPixelPhaseEncode": 28.935,
  "BaseResolution": 72,
  "CoilString": "C:HEA;HEP",
  "ConversionSoftware": "dcm2niix",
  "ConversionSoftwareVersion": "v1.0.20190410  GCC6.3.0",
  "DerivedVendorReportedEchoSpacing": 0.000480003,
  "DeviceSerialNumber": "35149",
  "DwellTime": 2.9e-06,
  "EchoTime": 0.025,
  "EffectiveEchoSpacing": 0.000480003,
  "FlipAngle": 75,
  "ImageOrientationPatientDICOM": [0.989942, 0.102479, 0.0975292, -0.0338534, 0.840965, -0.54003],
  "ImageType": [
    "ORIGINAL",
    "PRIMARY",
    "M",
    "ND",
    "MOSAIC"
],
  "ImagingFrequency": 123.255,
  "InPlanePhaseEncodingDirectionDICOM": "COL",
  "InstitutionAddress": "Street_StreetNo_Rehovot_91E162_District_IL_ZIP",
  "InstitutionName": "Weizmann",
  "InstitutionalDepartmentName": "Department",
  "MRAcquisitionType": "2D",
  "MagneticFieldStrength": 3,
  "Manufacturer": "Siemens",
  "ManufacturersModelName": "TrioTim",
  "Modality": "MR",
  "PartialFourier": 1,
  "PatientPosition": "HFS",
  "PercentPhaseFOV": 100,
  "PhaseEncodingDirection": "j-",
  "PhaseEncodingSteps": 72,
  "PhaseResolution": 1,
  "PixelBandwidth": 2395,
  "ProcedureStepDescription": "Weizmann_Sobel",
  "ProtocolName": "exp1_30_to_AC-PC",
  "PulseSequenceDetails": "%SiemensSeq%_ep2d_pace",
  "ReceiveCoilName": "HeadMatrix",
  "ReconMatrixPE": 72,
  "RepetitionTime": 2,
  "SAR": 0.142604,
  "ScanOptions": "FS",
  "ScanningSequence": "EP",
  "SequenceName": "_epfid2d1_72",
  "SequenceVariant": "SK",
  "SeriesDescription": "exp1_30_to_AC-PC",
  "SeriesNumber": 3,
  "ShimSetting": [2379, 9307, -5724, 224, 140, -1004, 188, 93],
  "SliceThickness": 3.7,
  "SliceTiming": [0.995, 0, 1.0525, 0.0575, 1.11, 0.1175, 1.17, 0.175, 1.2275, 0.235, 1.2875, 0.2925, 1.345, 0.35, 1.4025, 0.41, 1.4625, 0.4675, 1.52, 0.5275, 1.5775, 0.585, 1.6375, 0.6425, 1.695, 0.7025, 1.755, 0.76, 1.8125, 0.8175, 1.87, 0.8775, 1.93, 0.935],
  "SoftwareVersions": "syngo_MR_B17",
  "SpacingBetweenSlices": 3.7,
  "StationName": "MRC35149",
  "TaskName": "blank",
  "TotalReadoutTime": 0.0340802,
  "TxRefAmp": 325.162,
  "VendorReportedEchoSpacing": 0.00048,
  "dcmmeta_affine": [
    [-2.96982741355896, -0.1015600636601448, 0.5082342028617859, 109.69140625],
    [-0.30743834376335144, 2.5228936672210693, -1.96579909324646, -47.010658264160156],
    [0.29258760809898376, 1.620090365409851, 3.0931103229522705, -97.62447357177734],
    [0.0, 0.0, 0.0, 1.0]
],
  "dcmmeta_reorient_transform": [
    [0.0, -1.0, 0.0, 71.0],
    [1.0, 0.0, 0.0, 0.0],
    [0.0, 0.0, 1.0, 0.0],
    [0.0, 0.0, 0.0, 1.0]
],
  "dcmmeta_shape": [72, 72, 34, 450],
  "dcmmeta_slice_dim": 2,
  "dcmmeta_version": 0.6,
  "global": {
    "const": {
      "AcquisitionMatrix": [72, 0, 0, 72],
      "AngioFlag": "N",
      "BitsAllocated": 16,
      "BitsStored": 12,
      "Columns": 432,
      "EchoNumbers": 1,
      "EchoTime": 25.0,
      "EchoTrainLength": 1,
      "FlipAngle": 75.0,
      "HighBit": 11,
      "ImageOrientationPatient": [0.98994243187755, 0.10247944417341, 0.09752920121825, -0.0338533557451, 0.84096456572862, -0.5400301375791],
      "ImagePositionPatient": [-618.76874492724, -641.57455777198, 256.35245177829],
      "ImageType": [
        "ORIGINAL",
        "PRIMARY",
        "M",
        "ND",
        "MOSAIC"
],
      "ImagedNucleus": "1H",
      "ImagingFrequency": 123.254743,
      "InPlanePhaseEncodingDirection": "COL",
      "MRAcquisitionType": "2D",
      "MagneticFieldStrength": 3.0,
      "Manufacturer": "SIEMENS",
      "ManufacturerModelName": "TrioTim",
      "Modality": "MR",
      "NumberOfAverages": 1.0,
      "NumberOfPhaseEncodingSteps": 72,
      "PercentPhaseFieldOfView": 100.0,
      "PercentSampling": 100.0,
      "PerformedProcedureStepStartTime": "155133.328000",
      "PhotometricInterpretation": "MONOCHROME2",
      "PixelBandwidth": 2395.0,
      "PixelRepresentation": 0,
      "PixelSpacing": [3.0, 3.0],
      "ProtocolName": "exp1_30_to_AC-PC",
      "RepetitionTime": 2000.0,
      "Rows": 432,
      "SAR": 0.1426040197911,
      "SamplesPerPixel": 1,
      "ScanOptions": "FS",
      "ScanningSequence": "EP",
      "SequenceName": "*epfid2d1_72",
      "SequenceVariant": "SK",
      "SeriesDescription": "exp1_30_to_AC-PC",
      "SeriesNumber": 3,
      "SeriesTime": "160530.046000",
      "SliceLocation": -41.567793117297,
      "SliceThickness": 3.7000000476837,
      "SmallestImagePixelValue": 0,
      "SoftwareVersions": "syngo MR B17",
      "SpacingBetweenSlices": 3.6999999903559,
      "SpecificCharacterSet": "ISO_IR 100",
      "StudyID": "2",
      "StudyTime": "155133.265000",
      "TransmitCoilName": "Body",
      "VariableFlipAngleFlag": "N",
      "WindowCenterWidthExplanation": "Algo1",
      "dBdt": 0.0},
    "slices": {}
  },
  "time": {
    "samples": {
      "AcquisitionNumber": [1, 2, 3, 4, 5, 6, 7, 8, 9, 10, 11, 12, 13, 14, 15, 16, 17, 18, 19, 20, 21, 22, 23, 24, 25, 26, 27, 28, 29, 30, 31, 32, 33, 34, 35, 36, 37, 38, 39, 40, 41, 42, 43, 44, 45, 46, 47, 48, 49, 50, 51, 52, 53, 54, 55, 56, 57, 58, 59, 60, 61, 62, 63, 64, 65, 66, 67, 68, 69, 70, 71, 72, 73, 74, 75, 76, 77, 78, 79, 80, 81, 82, 83, 84, 85, 86, 87, 88, 89, 90, 91, 92, 93, 94, 95, 96, 97, 98, 99, 100, 101, 102, 103, 104, 105, 106, 107, 108, 109, 110, 111, 112, 113, 114, 115, 116, 117, 118, 119, 120, 121, 122, 123, 124, 125, 126, 127, 128, 129, 130, 131, 132, 133, 134, 135, 136, 137, 138, 139, 140, 141, 142, 143, 144, 145, 146, 147, 148, 149, 150, 151, 152, 153, 154, 155, 156, 157, 158, 159, 160, 161, 162, 163, 164, 165, 166, 167, 168, 169, 170, 171, 172, 173, 174, 175, 176, 177, 178, 179, 180, 181, 182, 183, 184, 185, 186, 187, 188, 189, 190, 191, 192, 193, 194, 195, 196, 197, 198, 199, 200, 201, 202, 203, 204, 205, 206, 207, 208, 209, 210, 211, 212, 213, 214, 215, 216, 217, 218, 219, 220, 221, 222, 223, 224, 225, 226, 227, 228, 229, 230, 231, 232, 233, 234, 235, 236, 237, 238, 239, 240, 241, 242, 243, 244, 245, 246, 247, 248, 249, 250, 251, 252, 253, 254, 255, 256, 257, 258, 259, 260, 261, 262, 263, 264, 265, 266, 267, 268, 269, 270, 271, 272, 273, 274, 275, 276, 277, 278, 279, 280, 281, 282, 283, 284, 285, 286, 287, 288, 289, 290, 291, 292, 293, 294, 295, 296, 297, 298, 299, 300, 301, 302, 303, 304, 305, 306, 307, 308, 309, 310, 311, 312, 313, 314, 315, 316, 317, 318, 319, 320, 321, 322, 323, 324, 325, 326, 327, 328, 329, 330, 331, 332, 333, 334, 335, 336, 337, 338, 339, 340, 341, 342, 343, 344, 345, 346, 347, 348, 349, 350, 351, 352, 353, 354, 355, 356, 357, 358, 359, 360, 361, 362, 363, 364, 365, 366, 367, 368, 369, 370, 371, 372, 373, 374, 375, 376, 377, 378, 379, 380, 381, 382, 383, 384, 385, 386, 387, 388, 389, 390, 391, 392, 393, 394, 395, 396, 397, 398, 399, 400, 401, 402, 403, 404, 405, 406, 407, 408, 409, 410, 411, 412, 413, 414, 415, 416, 417, 418, 419, 420, 421, 422, 423, 424, 425, 426, 427, 428, 429, 430, 431, 432, 433, 434, 435, 436, 437, 438, 439, 440, 441, 442, 443, 444, 445, 446, 447, 448, 449, 450],
      "AcquisitionTime": ["160434.040000", "160436.047500", "160438.055000", "160440.062500", "160442.070000", "160444.080000", "160446.087500", "160448.095000", "160450.102500", "160452.112500", "160454.120000", "160456.127500", "160458.135000", "160500.142500", "160502.152500", "160504.160000", "160506.167500", "160508.175000", "160510.182500", "160512.192500", "160514.200000", "160516.207500", "160518.215000", "160520.222500", "160522.232500", "160524.240000", "160526.247500", "160528.255000", "160530.265000", "160532.272500", "160534.280000", "160536.287500", "160538.295000", "160540.305000", "160542.312500", "160544.320000", "160546.327500", "160548.335000", "160550.345000", "160552.352500", "160554.360000", "160556.367500", "160558.377500", "160600.385000", "160602.392500", "160604.400000", "160606.407500", "160608.417500", "160610.425000", "160612.432500", "160614.440000", "160616.447500", "160618.457500", "160620.465000", "160622.472500", "160624.480000", "160626.490000", "160628.497500", "160630.505000", "160632.512500", "160634.520000", "160636.530000", "160638.537500", "160640.545000", "160642.552500", "160644.560000", "160646.570000", "160648.577500", "160650.585000", "160652.592500", "160654.600000", "160656.610000", "160658.617500", "160700.625000", "160702.632500", "160704.642500", "160706.650000", "160708.657500", "160710.665000", "160712.672500", "160714.682500", "160716.690000", "160718.697500", "160720.705000", "160722.712500", "160724.722500", "160726.730000", "160728.737500", "160730.745000", "160732.755000", "160734.762500", "160736.770000", "160738.777500", "160740.785000", "160742.795000", "160744.802500", "160746.810000", "160748.817500", "160750.825000", "160752.835000", "160754.842500", "160756.850000", "160758.857500", "160800.867500", "160802.875000", "160804.882500", "160806.890000", "160808.897500", "160810.907500", "160812.915000", "160814.922500", "160816.930000", "160818.937500", "160820.947500", "160822.955000", "160824.962500", "160826.970000", "160828.977500", "160830.987500", "160832.995000", "160835.002500", "160837.010000", "160839.020000", "160841.027500", "160843.035000", "160845.042500", "160847.050000", "160849.060000", "160851.067500", "160853.075000", "160855.082500", "160857.090000", "160859.100000", "160901.107500", "160903.115000", "160905.122500", "160907.132500", "160909.140000", "160911.147500", "160913.155000", "160915.162500", "160917.172500", "160919.180000", "160921.187500", "160923.195000", "160925.202500", "160927.212500", "160929.220000", "160931.227500", "160933.235000", "160935.245000", "160937.252500", "160939.260000", "160941.267500", "160943.275000", "160945.285000", "160947.292500", "160949.300000", "160951.307500", "160953.315000", "160955.325000", "160957.332500", "160959.340000", "161001.347500", "161003.357500", "161005.365000", "161007.372500", "161009.380000", "161011.387500", "161013.397500", "161015.405000", "161017.412500", "161019.420000", "161021.427500", "161023.437500", "161025.445000", "161027.452500", "161029.460000", "161031.467500", "161033.477500", "161035.485000", "161037.492500", "161039.500000", "161041.510000", "161043.517500", "161045.525000", "161047.532500", "161049.540000", "161051.550000", "161053.557500", "161055.565000", "161057.572500", "161059.580000", "161101.590000", "161103.597500", "161105.605000", "161107.612500", "161109.622500", "161111.630000", "161113.637500", "161115.645000", "161117.652500", "161119.662500", "161121.670000", "161123.677500", "161125.685000", "161127.692500", "161129.702500", "161131.710000", "161133.717500", "161135.725000", "161137.735000", "161139.742500", "161141.750000", "161143.757500", "161145.765000", "161147.775000", "161149.782500", "161151.790000", "161153.797500", "161155.805000", "161157.815000", "161159.822500", "161201.830000", "161203.837500", "161205.845000", "161207.855000", "161209.862500", "161211.870000", "161213.877500", "161215.887500", "161217.895000", "161219.902500", "161221.910000", "161223.917500", "161225.927500", "161227.935000", "161229.942500", "161231.950000", "161233.957500", "161235.967500", "161237.975000", "161239.982500", "161241.990000", "161244.000000", "161246.007500", "161248.015000", "161250.022500", "161252.030000", "161254.040000", "161256.047500", "161258.055000", "161300.062500", "161302.070000", "161304.080000", "161306.087500", "161308.095000", "161310.102500", "161312.112500", "161314.120000", "161316.127500", "161318.135000", "161320.142500", "161322.152500", "161324.160000", "161326.167500", "161328.175000", "161330.182500", "161332.192500", "161334.200000", "161336.207500", "161338.215000", "161340.222500", "161342.232500", "161344.240000", "161346.247500", "161348.255000", "161350.265000", "161352.272500", "161354.280000", "161356.287500", "161358.295000", "161400.305000", "161402.312500", "161404.320000", "161406.327500", "161408.335000", "161410.345000", "161412.352500", "161414.360000", "161416.367500", "161418.377500", "161420.385000", "161422.392500", "161424.400000", "161426.407500", "161428.417500", "161430.425000", "161432.432500", "161434.440000", "161436.447500", "161438.457500", "161440.465000", "161442.472500", "161444.480000", "161446.490000", "161448.497500", "161450.505000", "161452.512500", "161454.520000", "161456.530000", "161458.537500", "161500.545000", "161502.552500", "161504.560000", "161506.570000", "161508.577500", "161510.585000", "161512.592500", "161514.600000", "161516.610000", "161518.617500", "161520.625000", "161522.632500", "161524.642500", "161526.650000", "161528.657500", "161530.665000", "161532.672500", "161534.682500", "161536.690000", "161538.697500", "161540.705000", "161542.712500", "161544.722500", "161546.730000", "161548.737500", "161550.745000", "161552.755000", "161554.762500", "161556.770000", "161558.777500", "161600.785000", "161602.795000", "161604.802500", "161606.810000", "161608.817500", "161610.825000", "161612.835000", "161614.842500", "161616.850000", "161618.857500", "161620.867500", "161622.875000", "161624.882500", "161626.890000", "161628.897500", "161630.907500", "161632.915000", "161634.922500", "161636.930000", "161638.937500", "161640.947500", "161642.955000", "161644.962500", "161646.970000", "161648.977500", "161650.987500", "161652.995000", "161655.002500", "161657.010000", "161659.020000", "161701.027500", "161703.035000", "161705.042500", "161707.050000", "161709.060000", "161711.067500", "161713.075000", "161715.082500", "161717.090000", "161719.100000", "161721.107500", "161723.115000", "161725.122500", "161727.132500", "161729.140000", "161731.147500", "161733.155000", "161735.162500", "161737.172500", "161739.180000", "161741.187500", "161743.195000", "161745.202500", "161747.212500", "161749.220000", "161751.227500", "161753.235000", "161755.245000", "161757.252500", "161759.260000", "161801.267500", "161803.275000", "161805.285000", "161807.292500", "161809.300000", "161811.307500", "161813.315000", "161815.325000", "161817.332500", "161819.340000", "161821.347500", "161823.357500", "161825.365000", "161827.372500", "161829.380000", "161831.387500", "161833.397500", "161835.405000", "161837.412500", "161839.420000", "161841.427500", "161843.437500", "161845.445000", "161847.452500", "161849.460000", "161851.467500", "161853.477500", "161855.485000", "161857.492500", "161859.500000", "161901.510000", "161903.517500", "161905.525000", "161907.532500", "161909.540000", "161911.550000", "161913.557500", "161915.565000", "161917.572500", "161919.580000", "161921.590000", "161923.597500", "161925.605000", "161927.612500", "161929.622500", "161931.630000", "161933.637500", "161935.645000"],
      "ContentTime": ["160530.062000", "160530.062000", "160530.062000", "160530.062000", "160530.062000", "160530.078000", "160530.078000", "160530.078000", "160530.078000", "160530.078000", "160530.093000", "160530.093000", "160530.093000", "160530.093000", "160530.093000", "160530.093000", "160530.109000", "160530.109000", "160530.109000", "160530.109000", "160530.109000", "160530.109000", "160530.109000", "160530.125000", "160530.125000", "160530.125000", "160530.125000", "160610.046000", "160610.046000", "160610.062000", "160610.062000", "160610.062000", "160610.062000", "160610.062000", "160610.062000", "160610.062000", "160610.078000", "160610.078000", "160610.078000", "160610.093000", "160610.093000", "160610.093000", "160610.093000", "160610.093000", "160610.093000", "160610.093000", "160610.093000", "160610.109000", "160710.046000", "160710.062000", "160710.062000", "160710.062000", "160710.062000", "160710.062000", "160710.062000", "160710.062000", "160710.078000", "160710.078000", "160710.078000", "160710.078000", "160710.078000", "160710.078000", "160710.078000", "160710.093000", "160710.093000", "160710.093000", "160710.093000", "160710.093000", "160710.093000", "160710.093000", "160710.093000", "160710.109000", "160710.109000", "160710.109000", "160710.109000", "160710.125000", "160710.125000", "160750.046000", "160750.046000", "160750.062000", "160750.062000", "160750.062000", "160750.062000", "160750.062000", "160750.062000", "160750.062000", "160750.078000", "160750.078000", "160750.078000", "160750.078000", "160750.078000", "160750.078000", "160750.078000", "160750.093000", "160750.093000", "160750.093000", "160750.093000", "160830.046000", "160830.046000", "160830.062000", "160830.062000", "160830.062000", "160830.062000", "160830.062000", "160830.062000", "160830.078000", "160830.078000", "160830.078000", "160830.078000", "160830.078000", "160830.093000", "160830.093000", "160830.093000", "160830.093000", "160830.093000", "160830.093000", "160830.093000", "160910.046000", "160910.046000", "160910.062000", "160910.062000", "160910.062000", "160910.062000", "160910.062000", "160910.062000", "160910.062000", "160910.078000", "160910.078000", "160910.078000", "160910.093000", "160910.093000", "160910.093000", "160910.093000", "160910.093000", "160910.093000", "160910.093000", "160910.109000", "160930.046000", "160930.046000", "160930.062000", "160930.062000", "160930.062000", "160930.062000", "160930.078000", "160930.078000", "160930.078000", "160930.078000", "161010.046000", "161010.046000", "161010.062000", "161010.062000", "161010.078000", "161010.078000", "161010.078000", "161010.078000", "161010.078000", "161010.078000", "161010.078000", "161010.093000", "161010.093000", "161010.093000", "161010.093000", "161010.093000", "161010.093000", "161010.093000", "161010.109000", "161010.109000", "161010.109000", "161110.046000", "161110.062000", "161110.062000", "161110.062000", "161110.062000", "161110.062000", "161110.062000", "161110.078000", "161110.078000", "161110.078000", "161110.078000", "161110.078000", "161110.078000", "161110.078000", "161110.093000", "161110.093000", "161110.093000", "161110.093000", "161110.093000", "161110.093000", "161110.093000", "161110.109000", "161110.109000", "161110.109000", "161110.109000", "161110.125000", "161110.125000", "161110.125000", "161110.125000", "161150.046000", "161150.046000", "161150.062000", "161150.062000", "161150.062000", "161150.062000", "161150.062000", "161150.078000", "161150.078000", "161150.078000", "161150.078000", "161150.078000", "161150.093000", "161150.093000", "161150.093000", "161150.093000", "161150.093000", "161150.093000", "161150.093000", "161150.109000", "161230.046000", "161230.046000", "161230.062000", "161230.062000", "161230.062000", "161230.062000", "161230.062000", "161230.062000", "161230.062000", "161230.078000", "161230.078000", "161230.078000", "161230.078000", "161230.078000", "161230.078000", "161230.078000", "161230.093000", "161230.093000", "161230.093000", "161230.093000", "161310.046000", "161310.046000", "161310.062000", "161310.062000", "161310.062000", "161310.062000", "161310.062000", "161310.062000", "161310.062000", "161310.078000", "161310.078000", "161310.078000", "161310.093000", "161310.093000", "161310.093000", "161310.093000", "161310.093000", "161310.093000", "161310.093000", "161310.109000", "161310.109000", "161410.046000", "161410.046000", "161410.062000", "161410.062000", "161410.062000", "161410.062000", "161410.062000", "161410.078000", "161410.078000", "161410.078000", "161410.078000", "161410.078000", "161410.093000", "161410.093000", "161410.093000", "161410.093000", "161410.093000", "161410.093000", "161410.093000", "161410.109000", "161410.109000", "161410.109000", "161410.109000", "161410.109000", "161410.109000", "161410.125000", "161410.125000", "161410.125000", "161410.125000", "161410.125000", "161450.046000", "161450.046000", "161450.062000", "161450.062000", "161450.062000", "161450.062000", "161450.078000", "161450.078000", "161450.078000", "161450.078000", "161450.078000", "161450.078000", "161450.078000", "161450.093000", "161450.093000", "161450.093000", "161450.093000", "161450.093000", "161450.109000", "161450.109000", "161530.046000", "161530.046000", "161530.062000", "161530.062000", "161530.062000", "161530.062000", "161530.062000", "161530.062000", "161530.062000", "161530.078000", "161530.078000", "161530.078000", "161530.078000", "161530.078000", "161530.078000", "161530.078000", "161530.093000", "161530.093000", "161530.109000", "161530.109000", "161630.046000", "161630.046000", "161630.062000", "161630.062000", "161630.062000", "161630.062000", "161630.062000", "161630.062000", "161630.062000", "161630.078000", "161630.078000", "161630.078000", "161630.078000", "161630.078000", "161630.078000", "161630.078000", "161630.093000", "161630.093000", "161630.093000", "161630.093000", "161630.093000", "161630.093000", "161630.093000", "161630.109000", "161630.109000", "161630.109000", "161630.125000", "161630.125000", "161630.125000", "161630.125000", "161730.046000", "161730.062000", "161730.062000", "161730.062000", "161730.062000", "161730.078000", "161730.078000", "161730.078000", "161730.078000", "161730.078000", "161730.078000", "161730.078000", "161730.093000", "161730.093000", "161730.093000", "161730.093000", "161730.109000", "161730.109000", "161730.109000", "161730.109000", "161730.109000", "161730.109000", "161730.125000", "161730.125000", "161730.125000", "161730.125000", "161730.125000", "161730.125000", "161730.125000", "161810.046000", "161810.046000", "161810.062000", "161810.062000", "161810.062000", "161810.062000", "161810.062000", "161810.062000", "161810.062000", "161810.078000", "161810.078000", "161810.078000", "161810.078000", "161810.078000", "161810.078000", "161810.078000", "161810.093000", "161810.093000", "161810.093000", "161810.093000", "161810.093000", "161850.046000", "161850.046000", "161850.062000", "161850.062000", "161850.062000", "161850.062000", "161850.062000", "161850.062000", "161850.062000", "161850.078000", "161850.078000", "161850.078000", "161850.078000", "161850.078000", "161850.078000", "161850.078000", "161850.093000", "161850.093000", "161850.093000", "161850.093000", "161930.046000", "161930.046000", "161930.062000", "161930.062000", "161930.078000", "161930.078000", "161930.078000", "161930.078000", "161930.078000", "161930.078000", "161930.078000", "161930.093000", "161930.093000", "161930.093000", "161930.093000", "161930.093000", "161930.093000", "161930.109000", "161930.109000", "161930.109000", "161934.000000", "161934.000000"],
