{
  "AcquisitionMatrixPE": 72,
  "AcquisitionNumber": 1,
  "AcquisitionTime": "11:20:9.522500",
  "BandwidthPerPixelPhaseEncode": 28.935,
  "BaseResolution": 72,
  "CoilString": "C:HEA;HEP",
  "ConversionSoftware": "dcm2niix",
  "ConversionSoftwareVersion": "v1.0.20190410  GCC6.3.0",
  "DerivedVendorReportedEchoSpacing": 0.000480003,
  "DeviceSerialNumber": "35149",
  "DwellTime": 2.9e-06,
  "EchoTime": 0.025,
  "EffectiveEchoSpacing": 0.000480003,
  "FlipAngle": 75,
  "ImageOrientationPatientDICOM": [0.999726, 0.00142864, -0.0233714, -0.0146588, 0.816522, -0.577129],
  "ImageType": [
    "ORIGINAL",
    "PRIMARY",
    "M",
    "ND",
    "MOSAIC"
],
  "ImagingFrequency": 123.254,
  "InPlanePhaseEncodingDirectionDICOM": "COL",
  "InstitutionAddress": "Street_StreetNo_Rehovot_91E162_District_IL_ZIP",
  "InstitutionName": "Weizmann",
  "InstitutionalDepartmentName": "Department",
  "MRAcquisitionType": "2D",
  "MagneticFieldStrength": 3,
  "Manufacturer": "Siemens",
  "ManufacturersModelName": "TrioTim",
  "Modality": "MR",
  "PartialFourier": 1,
  "PatientPosition": "HFS",
  "PercentPhaseFOV": 100,
  "PhaseEncodingDirection": "j-",
  "PhaseEncodingSteps": 72,
  "PhaseResolution": 1,
  "PixelBandwidth": 2395,
  "ProcedureStepDescription": "Weizmann_Sobel",
  "ProtocolName": "exp2_30_to_AC-PC",
  "PulseSequenceDetails": "%SiemensSeq%_ep2d_pace",
  "ReceiveCoilName": "HeadMatrix",
  "ReconMatrixPE": 72,
  "RepetitionTime": 2,
  "SAR": 0.130311,
  "ScanOptions": "FS",
  "ScanningSequence": "EP",
  "SequenceName": "_epfid2d1_72",
  "SequenceVariant": "SK",
  "SeriesDescription": "exp2_30_to_AC-PC",
  "SeriesNumber": 5,
  "ShimSetting": [2337, 9261, -5575, 688, 371, -921, -21, 291],
  "SliceThickness": 3.7,
  "SliceTiming": [0.9925, 0, 1.0525, 0.0575, 1.11, 0.1175, 1.17, 0.175, 1.2275, 0.2325, 1.285, 0.2925, 1.345, 0.35, 1.4025, 0.41, 1.4625, 0.4675, 1.52, 0.525, 1.5775, 0.585, 1.6375, 0.6425, 1.695, 0.7025, 1.7525, 0.76, 1.8125, 0.8175, 1.87, 0.8775, 1.93, 0.935],
  "SoftwareVersions": "syngo_MR_B17",
  "SpacingBetweenSlices": 3.7,
  "StationName": "MRC35149",
  "TaskName": "blank",
  "TotalReadoutTime": 0.0340802,
  "TxRefAmp": 321.392,
  "VendorReportedEchoSpacing": 0.00048,
  "dcmmeta_affine": [
    [-2.9991774559020996, -0.04397648945450783, -0.06755726784467697, 111.6080322265625],
    [-0.0042859213426709175, 2.4495644569396973, -2.136059045791626, -56.76639938354492],
    [-0.0701141208410263, 1.731386661529541, 3.020378828048706, -106.57106018066406],
    [0.0, 0.0, 0.0, 1.0]
],
  "dcmmeta_reorient_transform": [
    [0.0, -1.0, 0.0, 71.0],
    [1.0, 0.0, 0.0, 0.0],
    [0.0, 0.0, 1.0, 0.0],
    [0.0, 0.0, 0.0, 1.0]
],
  "dcmmeta_shape": [72, 72, 34, 450],
  "dcmmeta_slice_dim": 2,
  "dcmmeta_version": 0.6,
  "global": {
    "const": {
      "AcquisitionMatrix": [72, 0, 0, 72],
      "AngioFlag": "N",
      "BitsAllocated": 16,
      "BitsStored": 12,
      "Columns": 432,
      "EchoNumbers": 1,
      "EchoTime": 25.0,
      "EchoTrainLength": 1,
      "FlipAngle": 75.0,
      "HighBit": 11,
      "ImageOrientationPatient": [0.99972583133103, 0.00142864048058, -0.0233713747107, -0.0146588299634, 0.81652150958806, -0.5771288790939],
      "ImagePositionPatient": [-640.4218801831, -558.84576508505, 340.62752521364],
      "ImageType": [
        "ORIGINAL",
        "PRIMARY",
        "M",
        "ND",
        "MOSAIC"
],
      "ImagedNucleus": "1H",
      "ImagingFrequency": 123.254492,
      "InPlanePhaseEncodingDirection": "COL",
      "MRAcquisitionType": "2D",
      "MagneticFieldStrength": 3.0,
      "Manufacturer": "SIEMENS",
      "ManufacturerModelName": "TrioTim",
      "Modality": "MR",
      "NumberOfAverages": 1.0,
      "NumberOfPhaseEncodingSteps": 72,
      "PercentPhaseFieldOfView": 100.0,
      "PercentSampling": 100.0,
      "PerformedProcedureStepStartTime": "105452.546000",
      "PhotometricInterpretation": "MONOCHROME2",
      "PixelBandwidth": 2395.0,
      "PixelRepresentation": 0,
      "PixelSpacing": [3.0, 3.0],
      "ProtocolName": "exp2_30_to_AC-PC",
      "RepetitionTime": 2000.0,
      "Rows": 432,
      "SAR": 0.13031123847039,
      "SamplesPerPixel": 1,
      "ScanOptions": "FS",
      "ScanningSequence": "EP",
      "SequenceName": "*epfid2d1_72",
      "SequenceVariant": "SK",
      "SeriesDescription": "exp2_30_to_AC-PC",
      "SeriesNumber": 5,
      "SeriesTime": "112056.906000",
      "SliceLocation": -56.261766310768,
      "SliceThickness": 3.7000000476837,
      "SmallestImagePixelValue": 0,
      "SoftwareVersions": "syngo MR B17",
      "SpacingBetweenSlices": 3.7000000441671,
      "SpecificCharacterSet": "ISO_IR 100",
      "StudyID": "1",
      "StudyTime": "105452.500000",
      "TransmitCoilName": "Body",
      "VariableFlipAngleFlag": "N",
      "WindowCenterWidthExplanation": "Algo1",
      "dBdt": 0.0},
    "slices": {}
  },
  "time": {
    "samples": {
      "AcquisitionNumber": [1, 2, 3, 4, 5, 6, 7, 8, 9, 10, 11, 12, 13, 14, 15, 16, 17, 18, 19, 20, 21, 22, 23, 24, 25, 26, 27, 28, 29, 30, 31, 32, 33, 34, 35, 36, 37, 38, 39, 40, 41, 42, 43, 44, 45, 46, 47, 48, 49, 50, 51, 52, 53, 54, 55, 56, 57, 58, 59, 60, 61, 62, 63, 64, 65, 66, 67, 68, 69, 70, 71, 72, 73, 74, 75, 76, 77, 78, 79, 80, 81, 82, 83, 84, 85, 86, 87, 88, 89, 90, 91, 92, 93, 94, 95, 96, 97, 98, 99, 100, 101, 102, 103, 104, 105, 106, 107, 108, 109, 110, 111, 112, 113, 114, 115, 116, 117, 118, 119, 120, 121, 122, 123, 124, 125, 126, 127, 128, 129, 130, 131, 132, 133, 134, 135, 136, 137, 138, 139, 140, 141, 142, 143, 144, 145, 146, 147, 148, 149, 150, 151, 152, 153, 154, 155, 156, 157, 158, 159, 160, 161, 162, 163, 164, 165, 166, 167, 168, 169, 170, 171, 172, 173, 174, 175, 176, 177, 178, 179, 180, 181, 182, 183, 184, 185, 186, 187, 188, 189, 190, 191, 192, 193, 194, 195, 196, 197, 198, 199, 200, 201, 202, 203, 204, 205, 206, 207, 208, 209, 210, 211, 212, 213, 214, 215, 216, 217, 218, 219, 220, 221, 222, 223, 224, 225, 226, 227, 228, 229, 230, 231, 232, 233, 234, 235, 236, 237, 238, 239, 240, 241, 242, 243, 244, 245, 246, 247, 248, 249, 250, 251, 252, 253, 254, 255, 256, 257, 258, 259, 260, 261, 262, 263, 264, 265, 266, 267, 268, 269, 270, 271, 272, 273, 274, 275, 276, 277, 278, 279, 280, 281, 282, 283, 284, 285, 286, 287, 288, 289, 290, 291, 292, 293, 294, 295, 296, 297, 298, 299, 300, 301, 302, 303, 304, 305, 306, 307, 308, 309, 310, 311, 312, 313, 314, 315, 316, 317, 318, 319, 320, 321, 322, 323, 324, 325, 326, 327, 328, 329, 330, 331, 332, 333, 334, 335, 336, 337, 338, 339, 340, 341, 342, 343, 344, 345, 346, 347, 348, 349, 350, 351, 352, 353, 354, 355, 356, 357, 358, 359, 360, 361, 362, 363, 364, 365, 366, 367, 368, 369, 370, 371, 372, 373, 374, 375, 376, 377, 378, 379, 380, 381, 382, 383, 384, 385, 386, 387, 388, 389, 390, 391, 392, 393, 394, 395, 396, 397, 398, 399, 400, 401, 402, 403, 404, 405, 406, 407, 408, 409, 410, 411, 412, 413, 414, 415, 416, 417, 418, 419, 420, 421, 422, 423, 424, 425, 426, 427, 428, 429, 430, 431, 432, 433, 434, 435, 436, 437, 438, 439, 440, 441, 442, 443, 444, 445, 446, 447, 448, 449, 450],
      "AcquisitionTime": ["112009.522500", "112011.532500", "112013.540000", "112015.547500", "112017.555000", "112019.565000", "112021.572500", "112023.580000", "112025.587500", "112027.595000", "112029.605000", "112031.612500", "112033.620000", "112035.627500", "112037.635000", "112039.645000", "112041.652500", "112043.660000", "112045.667500", "112047.675000", "112049.685000", "112051.692500", "112053.700000", "112055.707500", "112057.717500", "112059.725000", "112101.732500", "112103.740000", "112105.747500", "112107.757500", "112109.765000", "112111.772500", "112113.780000", "112115.787500", "112117.797500", "112119.805000", "112121.812500", "112123.820000", "112125.830000", "112127.837500", "112129.845000", "112131.852500", "112133.860000", "112135.870000", "112137.877500", "112139.885000", "112141.892500", "112143.900000", "112145.910000", "112147.917500", "112149.925000", "112151.932500", "112153.942500", "112155.950000", "112157.957500", "112159.965000", "112201.972500", "112203.982500", "112205.990000", "112207.997500", "112210.005000", "112212.012500", "112214.022500", "112216.030000", "112218.037500", "112220.045000", "112222.052500", "112224.062500", "112226.070000", "112228.077500", "112230.085000", "112232.095000", "112234.102500", "112236.110000", "112238.117500", "112240.125000", "112242.135000", "112244.142500", "112246.150000", "112248.157500", "112250.165000", "112252.175000", "112254.182500", "112256.190000", "112258.197500", "112300.207500", "112302.215000", "112304.222500", "112306.230000", "112308.237500", "112310.247500", "112312.255000", "112314.262500", "112316.270000", "112318.277500", "112320.287500", "112322.295000", "112324.302500", "112326.310000", "112328.320000", "112330.327500", "112332.335000", "112334.342500", "112336.350000", "112338.360000", "112340.367500", "112342.375000", "112344.382500", "112346.390000", "112348.400000", "112350.407500", "112352.415000", "112354.422500", "112356.432500", "112358.440000", "112400.447500", "112402.455000", "112404.462500", "112406.472500", "112408.480000", "112410.487500", "112412.495000", "112414.502500", "112416.512500", "112418.520000", "112420.527500", "112422.535000", "112424.542500", "112426.552500", "112428.560000", "112430.567500", "112432.575000", "112434.585000", "112436.592500", "112438.600000", "112440.607500", "112442.615000", "112444.625000", "112446.632500", "112448.640000", "112450.647500", "112452.655000", "112454.665000", "112456.672500", "112458.680000", "112500.687500", "112502.697500", "112504.705000", "112506.712500", "112508.720000", "112510.727500", "112512.737500", "112514.745000", "112516.752500", "112518.760000", "112520.767500", "112522.777500", "112524.785000", "112526.792500", "112528.800000", "112530.810000", "112532.817500", "112534.825000", "112536.832500", "112538.840000", "112540.850000", "112542.857500", "112544.865000", "112546.872500", "112548.880000", "112550.890000", "112552.897500", "112554.905000", "112556.912500", "112558.920000", "112600.930000", "112602.937500", "112604.945000", "112606.952500", "112608.962500", "112610.970000", "112612.977500", "112614.985000", "112616.992500", "112619.002500", "112621.010000", "112623.017500", "112625.025000", "112627.032500", "112629.042500", "112631.050000", "112633.057500", "112635.065000", "112637.075000", "112639.082500", "112641.090000", "112643.097500", "112645.105000", "112647.115000", "112649.122500", "112651.130000", "112653.137500", "112655.145000", "112657.155000", "112659.162500", "112701.170000", "112703.177500", "112705.187500", "112707.195000", "112709.202500", "112711.210000", "112713.217500", "112715.227500", "112717.235000", "112719.242500", "112721.250000", "112723.257500", "112725.267500", "112727.275000", "112729.282500", "112731.290000", "112733.297500", "112735.307500", "112737.315000", "112739.322500", "112741.330000", "112743.340000", "112745.347500", "112747.355000", "112749.362500", "112751.370000", "112753.380000", "112755.387500", "112757.395000", "112759.402500", "112801.410000", "112803.420000", "112805.427500", "112807.435000", "112809.442500", "112811.452500", "112813.460000", "112815.467500", "112817.475000", "112819.482500", "112821.492500", "112823.500000", "112825.507500", "112827.515000", "112829.522500", "112831.532500", "112833.540000", "112835.547500", "112837.555000", "112839.565000", "112841.572500", "112843.580000", "112845.587500", "112847.595000", "112849.605000", "112851.612500", "112853.620000", "112855.627500", "112857.635000", "112859.645000", "112901.652500", "112903.660000", "112905.667500", "112907.675000", "112909.685000", "112911.692500", "112913.700000", "112915.707500", "112917.717500", "112919.725000", "112921.732500", "112923.740000", "112925.747500", "112927.757500", "112929.765000", "112931.772500", "112933.780000", "112935.787500", "112937.797500", "112939.805000", "112941.812500", "112943.820000", "112945.830000", "112947.837500", "112949.845000", "112951.852500", "112953.860000", "112955.870000", "112957.877500", "112959.885000", "113001.892500", "113003.900000", "113005.910000", "113007.917500", "113009.925000", "113011.932500", "113013.942500", "113015.950000", "113017.957500", "113019.965000", "113021.972500", "113023.982500", "113025.990000", "113027.997500", "113030.005000", "113032.012500", "113034.022500", "113036.030000", "113038.037500", "113040.045000", "113042.052500", "113044.062500", "113046.070000", "113048.077500", "113050.085000", "113052.095000", "113054.102500", "113056.110000", "113058.117500", "113100.125000", "113102.135000", "113104.142500", "113106.150000", "113108.157500", "113110.165000", "113112.175000", "113114.182500", "113116.190000", "113118.197500", "113120.207500", "113122.215000", "113124.222500", "113126.230000", "113128.237500", "113130.247500", "113132.255000", "113134.262500", "113136.270000", "113138.277500", "113140.287500", "113142.295000", "113144.302500", "113146.310000", "113148.320000", "113150.327500", "113152.335000", "113154.342500", "113156.350000", "113158.360000", "113200.367500", "113202.375000", "113204.382500", "113206.390000", "113208.400000", "113210.407500", "113212.415000", "113214.422500", "113216.432500", "113218.440000", "113220.447500", "113222.455000", "113224.462500", "113226.472500", "113228.480000", "113230.487500", "113232.495000", "113234.502500", "113236.512500", "113238.520000", "113240.527500", "113242.535000", "113244.542500", "113246.552500", "113248.560000", "113250.567500", "113252.575000", "113254.585000", "113256.592500", "113258.600000", "113300.607500", "113302.615000", "113304.625000", "113306.632500", "113308.640000", "113310.647500", "113312.655000", "113314.665000", "113316.672500", "113318.680000", "113320.687500", "113322.697500", "113324.705000", "113326.712500", "113328.720000", "113330.727500", "113332.737500", "113334.745000", "113336.752500", "113338.760000", "113340.767500", "113342.777500", "113344.785000", "113346.792500", "113348.800000", "113350.810000", "113352.817500", "113354.825000", "113356.832500", "113358.840000", "113400.850000", "113402.857500", "113404.865000", "113406.872500", "113408.880000", "113410.890000", "113412.897500", "113414.905000", "113416.912500", "113418.920000", "113420.930000", "113422.937500", "113424.945000", "113426.952500", "113428.962500", "113430.970000", "113432.977500", "113434.985000", "113436.992500", "113439.002500", "113441.010000", "113443.017500", "113445.025000", "113447.032500", "113449.042500", "113451.050000", "113453.057500", "113455.065000", "113457.075000", "113459.082500", "113501.090000", "113503.097500", "113505.105000", "113507.115000", "113509.122500", "113511.130000"],
      "ContentTime": ["112056.906000", "112056.921000", "112056.921000", "112056.921000", "112056.921000", "112056.937000", "112056.937000", "112056.937000", "112056.937000", "112056.937000", "112056.937000", "112056.953000", "112056.953000", "112056.953000", "112056.953000", "112056.953000", "112056.953000", "112056.953000", "112056.968000", "112056.968000", "112056.968000", "112056.968000", "112056.984000", "112136.890000", "112136.890000", "112136.906000", "112136.906000", "112136.906000", "112136.906000", "112136.906000", "112136.906000", "112136.921000", "112136.921000", "112136.921000", "112136.921000", "112136.921000", "112136.921000", "112136.921000", "112136.937000", "112136.937000", "112136.937000", "112136.937000", "112136.937000", "112216.890000", "112216.890000", "112216.906000", "112216.906000", "112216.906000", "112216.906000", "112216.906000", "112216.906000", "112216.921000", "112216.921000", "112216.921000", "112216.921000", "112216.921000", "112216.921000", "112216.937000", "112216.937000", "112216.937000", "112216.937000", "112216.937000", "112216.937000", "112256.890000", "112256.890000", "112256.906000", "112256.906000", "112256.906000", "112256.906000", "112256.906000", "112256.906000", "112256.921000", "112256.921000", "112256.921000", "112256.921000", "112256.921000", "112256.921000", "112256.921000", "112256.937000", "112256.937000", "112256.937000", "112256.937000", "112256.937000", "112336.890000", "112336.890000", "112336.906000", "112336.906000", "112336.906000", "112336.906000", "112336.906000", "112336.906000", "112336.906000", "112336.921000", "112336.921000", "112336.921000", "112336.921000", "112336.921000", "112336.937000", "112336.937000", "112336.937000", "112336.937000", "112336.937000", "112336.937000", "112416.890000", "112416.890000", "112416.906000", "112416.906000", "112416.906000", "112416.906000", "112416.921000", "112416.921000", "112416.921000", "112416.921000", "112416.921000", "112416.921000", "112416.921000", "112416.921000", "112416.937000", "112416.937000", "112416.937000", "112416.937000", "112416.937000", "112416.937000", "112456.890000", "112456.906000", "112456.906000", "112456.906000", "112456.906000", "112456.906000", "112456.906000", "112456.921000", "112456.921000", "112456.921000", "112456.921000", "112456.921000", "112456.921000", "112456.921000", "112456.937000", "112456.937000", "112456.937000", "112456.937000", "112456.937000", "112456.937000", "112536.890000", "112536.890000", "112536.906000", "112536.906000", "112536.906000", "112536.906000", "112536.921000", "112536.921000", "112536.921000", "112536.921000", "112536.921000", "112536.921000", "112536.921000", "112536.937000", "112536.937000", "112536.937000", "112536.937000", "112536.937000", "112536.937000", "112536.937000", "112616.890000", "112616.890000", "112616.906000", "112616.906000", "112616.906000", "112616.906000", "112616.906000", "112616.906000", "112616.906000", "112616.921000", "112616.921000", "112616.921000", "112616.921000", "112616.921000", "112616.921000", "112616.937000", "112616.937000", "112616.937000", "112616.937000", "112616.937000", "112656.890000", "112656.890000", "112656.906000", "112656.906000", "112656.906000", "112656.906000", "112656.906000", "112656.906000", "112656.921000", "112656.921000", "112656.921000", "112656.921000", "112656.921000", "112656.921000", "112656.921000", "112656.921000", "112656.937000", "112656.937000", "112656.937000", "112656.937000", "112736.890000", "112736.906000", "112736.906000", "112736.906000", "112736.906000", "112736.906000", "112736.906000", "112736.906000", "112736.921000", "112736.921000", "112736.921000", "112736.921000", "112736.921000", "112736.921000", "112736.921000", "112736.937000", "112736.937000", "112736.937000", "112736.937000", "112736.937000", "112816.890000", "112816.890000", "112816.906000", "112816.906000", "112816.906000", "112816.906000", "112816.906000", "112816.906000", "112816.906000", "112816.921000", "112816.921000", "112816.921000", "112816.921000", "112816.921000", "112816.921000", "112816.921000", "112816.937000", "112816.937000", "112816.937000", "112816.937000", "112856.890000", "112856.890000", "112856.906000", "112856.906000", "112856.906000", "112856.906000", "112856.906000", "112856.906000", "112856.906000", "112856.921000", "112856.921000", "112856.921000", "112856.921000", "112856.921000", "112856.921000", "112856.921000", "112856.921000", "112856.937000", "112856.937000", "112856.937000", "112936.890000", "112936.890000", "112936.906000", "112936.906000", "112936.906000", "112936.906000", "112936.906000", "112936.921000", "112936.921000", "112936.921000", "112936.921000", "112936.921000", "112936.921000", "112936.937000", "112936.937000", "112936.937000", "112936.937000", "112936.937000", "112936.937000", "112936.953000", "113016.890000", "113016.890000", "113016.906000", "113016.906000", "113016.906000", "113016.906000", "113016.906000", "113016.906000", "113016.906000", "113016.921000", "113016.921000", "113016.921000", "113016.921000", "113016.921000", "113016.921000", "113016.921000", "113016.937000", "113016.937000", "113016.937000", "113016.937000", "113056.890000", "113056.890000", "113056.906000", "113056.906000", "113056.906000", "113056.906000", "113056.906000", "113056.906000", "113056.906000", "113056.921000", "113056.921000", "113056.921000", "113056.921000", "113056.921000", "113056.921000", "113056.921000", "113056.937000", "113056.937000", "113056.937000", "113056.937000", "113136.890000", "113136.890000", "113136.906000", "113136.906000", "113136.906000", "113136.906000", "113136.906000", "113136.906000", "113136.906000", "113136.921000", "113136.921000", "113136.921000", "113136.921000", "113136.921000", "113136.921000", "113136.937000", "113136.937000", "113136.937000", "113136.937000", "113136.937000", "113216.890000", "113216.890000", "113216.906000", "113216.906000", "113216.906000", "113216.906000", "113216.921000", "113216.921000", "113216.921000", "113216.937000", "113216.937000", "113216.937000", "113216.937000", "113216.937000", "113216.937000", "113216.937000", "113216.937000", "113216.953000", "113216.953000", "113216.953000", "113256.890000", "113256.890000", "113256.906000", "113256.906000", "113256.906000", "113256.906000", "113256.906000", "113256.906000", "113256.906000", "113256.921000", "113256.921000", "113256.921000", "113256.921000", "113256.937000", "113256.937000", "113256.937000", "113256.937000", "113256.937000", "113256.953000", "113256.953000", "113336.890000", "113336.890000", "113336.906000", "113336.906000", "113336.906000", "113336.906000", "113336.906000", "113336.906000", "113336.906000", "113336.921000", "113336.921000", "113336.921000", "113336.921000", "113336.937000", "113336.937000", "113336.937000", "113336.937000", "113336.937000", "113336.937000", "113336.937000", "113416.890000", "113416.890000", "113416.906000", "113416.906000", "113416.906000", "113416.906000", "113416.906000", "113416.906000", "113416.906000", "113416.921000", "113416.921000", "113416.921000", "113416.921000", "113416.921000", "113416.937000", "113416.937000", "113416.937000", "113416.937000", "113416.937000", "113416.937000", "113456.890000", "113456.890000", "113456.906000", "113456.906000", "113456.906000", "113456.906000", "113456.906000", "113456.906000", "113456.906000", "113456.921000", "113456.921000", "113456.921000", "113456.921000", "113456.921000", "113456.921000", "113456.937000", "113456.937000", "113456.937000", "113456.937000", "113456.937000", "113509.234000", "113509.234000", "113509.234000", "113509.250000", "113509.250000", "113509.250000", "113509.250000"],
