{
  "AcquisitionMatrixPE": 72,
  "AcquisitionNumber": 1,
  "AcquisitionTime": "14:41:40.425000",
  "BandwidthPerPixelPhaseEncode": 28.935,
  "BaseResolution": 72,
  "CoilString": "C:HEA;HEP",
  "ConversionSoftware": "dcm2niix",
  "ConversionSoftwareVersion": "v1.0.20190410  GCC6.3.0",
  "DerivedVendorReportedEchoSpacing": 0.000480003,
  "DeviceSerialNumber": "35149",
  "DwellTime": 2.9e-06,
  "EchoTime": 0.025,
  "EffectiveEchoSpacing": 0.000480003,
  "FlipAngle": 75,
  "ImageOrientationPatientDICOM": [0.997232, 0.0725129, 0.0164284, -0.0511262, 0.829212, -0.556591],
  "ImageType": [
    "ORIGINAL",
    "PRIMARY",
    "M",
    "ND",
    "MOSAIC"
],
  "ImagingFrequency": 123.255,
  "InPlanePhaseEncodingDirectionDICOM": "COL",
  "InstitutionAddress": "Street_StreetNo_Rehovot_91E162_District_IL_ZIP",
  "InstitutionName": "Weizmann",
  "InstitutionalDepartmentName": "Department",
  "MRAcquisitionType": "2D",
  "MagneticFieldStrength": 3,
  "Manufacturer": "Siemens",
  "ManufacturersModelName": "TrioTim",
  "Modality": "MR",
  "PartialFourier": 1,
  "PatientPosition": "HFS",
  "PercentPhaseFOV": 100,
  "PhaseEncodingDirection": "j-",
  "PhaseEncodingSteps": 72,
  "PhaseResolution": 1,
  "PixelBandwidth": 2395,
  "ProcedureStepDescription": "Weizmann_Sobel",
  "ProtocolName": "exp2_30_to_AC-PC",
  "PulseSequenceDetails": "%SiemensSeq%_ep2d_pace",
  "ReceiveCoilName": "HeadMatrix",
  "ReconMatrixPE": 72,
  "RepetitionTime": 2,
  "SAR": 0.127631,
  "ScanOptions": "FS",
  "ScanningSequence": "EP",
  "SequenceName": "_epfid2d1_72",
  "SequenceVariant": "SK",
  "SeriesDescription": "exp2_30_to_AC-PC",
  "SeriesNumber": 5,
  "ShimSetting": [2336, 9468, -5510, 823, 306, -96, -335, 292],
  "SliceThickness": 3.7,
  "SliceTiming": [0.9925, 0, 1.0525, 0.0575, 1.11, 0.1175, 1.17, 0.175, 1.2275, 0.2325, 1.285, 0.2925, 1.345, 0.35, 1.4025, 0.41, 1.46, 0.4675, 1.52, 0.525, 1.5775, 0.585, 1.6375, 0.6425, 1.695, 0.7, 1.7525, 0.76, 1.8125, 0.8175, 1.87, 0.8775, 1.93, 0.935],
  "SoftwareVersions": "syngo_MR_B17",
  "SpacingBetweenSlices": 3.7,
  "StationName": "MRC35149",
  "TaskName": "bodyodor",
  "TotalReadoutTime": 0.0340802,
  "TxRefAmp": 278.633,
  "VendorReportedEchoSpacing": 0.00048,
  "dcmmeta_affine": [
    [-2.99169659614563, -0.15337851643562317, 0.19973602890968323, 110.96435546875],
    [-0.21753878891468048, 2.487635374069214, -2.0505805015563965, -46.29654312133789],
    [0.04928524047136307, 1.6697741746902466, 3.0733087062835693, -107.49012756347656],
    [0.0, 0.0, 0.0, 1.0]
],
  "dcmmeta_reorient_transform": [
    [0.0, -1.0, 0.0, 71.0],
    [1.0, 0.0, 0.0, 0.0],
    [0.0, 0.0, 1.0, 0.0],
    [0.0, 0.0, 0.0, 1.0]
],
  "dcmmeta_shape": [72, 72, 34, 446],
  "dcmmeta_slice_dim": 2,
  "dcmmeta_version": 0.6,
  "global": {
    "const": {
      "AcquisitionMatrix": [72, 0, 0, 72],
      "AngioFlag": "N",
      "BitsAllocated": 16,
      "BitsStored": 12,
      "Columns": 432,
      "EchoNumbers": 1,
      "EchoTime": 25.0,
      "EchoTrainLength": 1,
      "FlipAngle": 75.0,
      "HighBit": 11,
      "ImageOrientationPatient": [0.99723216049279, 0.07251293195718, 0.01642841373496, -0.0511261709764, 0.82921175578437, -0.5565913929538],
      "ImagePositionPatient": [-610.97171766559, -617.25689056424, 302.75184878456],
      "ImageType": [
        "ORIGINAL",
        "PRIMARY",
        "M",
        "ND",
        "MOSAIC"
],
      "ImagedNucleus": "1H",
      "ImagingFrequency": 123.254967,
      "InPlanePhaseEncodingDirection": "COL",
      "MRAcquisitionType": "2D",
      "MagneticFieldStrength": 3.0,
      "Manufacturer": "SIEMENS",
      "ManufacturerModelName": "TrioTim",
      "Modality": "MR",
      "NumberOfAverages": 1.0,
      "NumberOfPhaseEncodingSteps": 72,
      "PercentPhaseFieldOfView": 100.0,
      "PercentSampling": 100.0,
      "PerformedProcedureStepStartTime": "135855.031000",
      "PhotometricInterpretation": "MONOCHROME2",
      "PixelBandwidth": 2395.0,
      "PixelRepresentation": 0,
      "PixelSpacing": [3.0, 3.0],
      "ProtocolName": "exp2_30_to_AC-PC",
      "RepetitionTime": 2000.0,
      "Rows": 432,
      "SAR": 0.12763132210806,
      "SamplesPerPixel": 1,
      "ScanOptions": "FS",
      "ScanningSequence": "EP",
      "SequenceName": "*epfid2d1_72",
      "SequenceVariant": "SK",
      "SeriesDescription": "exp2_30_to_AC-PC",
      "SeriesNumber": 5,
      "SeriesTime": "144221.562000",
      "SliceLocation": -57.635665515898,
      "SliceThickness": 3.7000000476837,
      "SmallestImagePixelValue": 0,
      "SoftwareVersions": "syngo MR B17",
      "SpacingBetweenSlices": 3.700000105745,
      "SpecificCharacterSet": "ISO_IR 100",
      "StudyID": "1",
      "StudyTime": "135854.953000",
      "TransmitCoilName": "Body",
      "VariableFlipAngleFlag": "N",
      "WindowCenterWidthExplanation": "Algo1",
      "dBdt": 0.0},
    "slices": {}
  },
  "time": {
    "samples": {
      "AcquisitionNumber": [1, 2, 3, 4, 5, 6, 7, 8, 9, 10, 11, 12, 13, 14, 15, 16, 17, 18, 19, 20, 21, 22, 23, 24, 25, 26, 27, 28, 29, 30, 31, 32, 33, 34, 35, 36, 37, 38, 39, 40, 41, 42, 43, 44, 45, 46, 47, 48, 49, 50, 51, 52, 53, 54, 55, 56, 57, 58, 59, 60, 61, 62, 63, 64, 65, 66, 67, 68, 69, 70, 71, 72, 73, 74, 75, 76, 77, 78, 79, 80, 81, 82, 83, 84, 85, 86, 87, 88, 89, 90, 91, 92, 93, 94, 95, 96, 97, 98, 99, 100, 101, 102, 103, 104, 105, 106, 107, 108, 109, 110, 111, 112, 113, 114, 115, 116, 117, 118, 119, 120, 121, 122, 123, 124, 125, 126, 127, 128, 129, 130, 131, 132, 133, 134, 135, 136, 137, 138, 139, 140, 141, 142, 143, 144, 145, 146, 147, 148, 149, 150, 151, 152, 153, 154, 155, 156, 157, 158, 159, 160, 161, 162, 163, 164, 165, 166, 167, 168, 169, 170, 171, 172, 173, 174, 175, 176, 177, 178, 179, 180, 181, 182, 183, 184, 185, 186, 187, 188, 189, 190, 191, 192, 193, 194, 195, 196, 197, 198, 199, 200, 201, 202, 203, 204, 205, 206, 207, 208, 209, 210, 211, 212, 213, 214, 215, 216, 217, 218, 219, 220, 221, 222, 223, 224, 225, 226, 227, 228, 229, 230, 231, 232, 233, 234, 235, 236, 237, 238, 239, 240, 241, 242, 243, 244, 245, 246, 247, 248, 249, 250, 251, 252, 253, 254, 255, 256, 257, 258, 259, 260, 261, 262, 263, 264, 265, 266, 267, 268, 269, 270, 271, 272, 273, 274, 275, 276, 277, 278, 279, 280, 281, 282, 283, 284, 285, 286, 287, 288, 289, 290, 291, 292, 293, 294, 295, 296, 297, 298, 299, 300, 301, 302, 303, 304, 305, 306, 307, 308, 309, 310, 311, 312, 313, 314, 315, 316, 317, 318, 319, 320, 321, 322, 323, 324, 325, 326, 327, 328, 329, 330, 331, 332, 333, 334, 335, 336, 337, 338, 339, 340, 341, 342, 343, 344, 345, 346, 347, 348, 349, 350, 351, 352, 353, 354, 355, 356, 357, 358, 359, 360, 361, 362, 363, 364, 365, 366, 367, 368, 369, 370, 371, 372, 373, 374, 375, 376, 377, 378, 379, 380, 381, 382, 383, 384, 385, 386, 387, 388, 389, 390, 391, 392, 393, 394, 395, 396, 397, 398, 399, 400, 401, 402, 403, 404, 405, 406, 407, 408, 409, 410, 411, 412, 413, 414, 415, 416, 417, 418, 419, 420, 421, 422, 423, 424, 425, 426, 427, 428, 429, 430, 431, 432, 433, 434, 435, 436, 437, 438, 439, 440, 441, 442, 443, 444, 445, 446],
      "AcquisitionTime": ["144140.425000", "144142.435000", "144144.442500", "144146.450000", "144148.457500", "144150.465000", "144152.475000", "144154.482500", "144156.490000", "144158.497500", "144200.507500", "144202.515000", "144204.522500", "144206.530000", "144208.537500", "144210.547500", "144212.555000", "144214.562500", "144216.570000", "144218.577500", "144220.587500", "144222.595000", "144224.602500", "144226.610000", "144228.620000", "144230.627500", "144232.635000", "144234.642500", "144236.650000", "144238.660000", "144240.667500", "144242.675000", "144244.682500", "144246.690000", "144248.700000", "144250.707500", "144252.715000", "144254.722500", "144256.730000", "144258.740000", "144300.747500", "144302.755000", "144304.762500", "144306.772500", "144308.780000", "144310.787500", "144312.795000", "144314.802500", "144316.812500", "144318.820000", "144320.827500", "144322.835000", "144324.842500", "144326.852500", "144328.860000", "144330.867500", "144332.875000", "144334.885000", "144336.892500", "144338.900000", "144340.907500", "144342.915000", "144344.925000", "144346.932500", "144348.940000", "144350.947500", "144352.955000", "144354.965000", "144356.972500", "144358.980000", "144400.987500", "144402.997500", "144405.005000", "144407.012500", "144409.020000", "144411.027500", "144413.037500", "144415.045000", "144417.052500", "144419.060000", "144421.067500", "144423.077500", "144425.085000", "144427.092500", "144429.100000", "144431.107500", "144433.117500", "144435.125000", "144437.132500", "144439.140000", "144441.150000", "144443.157500", "144445.165000", "144447.172500", "144449.180000", "144451.190000", "144453.197500", "144455.205000", "144457.212500", "144459.220000", "144501.230000", "144503.237500", "144505.245000", "144507.252500", "144509.262500", "144511.270000", "144513.277500", "144515.285000", "144517.292500", "144519.302500", "144521.310000", "144523.317500", "144525.325000", "144527.332500", "144529.342500", "144531.350000", "144533.357500", "144535.365000", "144537.375000", "144539.382500", "144541.390000", "144543.397500", "144545.405000", "144547.415000", "144549.422500", "144551.430000", "144553.437500", "144555.445000", "144557.455000", "144559.462500", "144601.470000", "144603.477500", "144605.487500", "144607.495000", "144609.502500", "144611.510000", "144613.517500", "144615.527500", "144617.535000", "144619.542500", "144621.550000", "144623.557500", "144625.567500", "144627.575000", "144629.582500", "144631.590000", "144633.597500", "144635.607500", "144637.615000", "144639.622500", "144641.630000", "144643.640000", "144645.647500", "144647.655000", "144649.662500", "144651.670000", "144653.680000", "144655.687500", "144657.695000", "144659.702500", "144701.710000", "144703.720000", "144705.727500", "144707.735000", "144709.742500", "144711.752500", "144713.760000", "144715.767500", "144717.775000", "144719.782500", "144721.792500", "144723.800000", "144725.807500", "144727.815000", "144729.822500", "144731.832500", "144733.840000", "144735.847500", "144737.855000", "144739.865000", "144741.872500", "144743.880000", "144745.887500", "144747.895000", "144749.905000", "144751.912500", "144753.920000", "144755.927500", "144757.935000", "144759.945000", "144801.952500", "144803.960000", "144805.967500", "144807.975000", "144809.985000", "144811.992500", "144814.000000", "144816.007500", "144818.017500", "144820.025000", "144822.032500", "144824.040000", "144826.047500", "144828.057500", "144830.065000", "144832.072500", "144834.080000", "144836.087500", "144838.097500", "144840.105000", "144842.112500", "144844.120000", "144846.130000", "144848.137500", "144850.145000", "144852.152500", "144854.160000", "144856.170000", "144858.177500", "144900.185000", "144902.192500", "144904.200000", "144906.210000", "144908.217500", "144910.225000", "144912.232500", "144914.242500", "144916.250000", "144918.257500", "144920.265000", "144922.272500", "144924.282500", "144926.290000", "144928.297500", "144930.305000", "144932.312500", "144934.322500", "144936.330000", "144938.337500", "144940.345000", "144942.352500", "144944.362500", "144946.370000", "144948.377500", "144950.385000", "144952.395000", "144954.402500", "144956.410000", "144958.417500", "145000.425000", "145002.435000", "145004.442500", "145006.450000", "145008.457500", "145010.465000", "145012.475000", "145014.482500", "145016.490000", "145018.497500", "145020.507500", "145022.515000", "145024.522500", "145026.530000", "145028.537500", "145030.547500", "145032.555000", "145034.562500", "145036.570000", "145038.577500", "145040.587500", "145042.595000", "145044.602500", "145046.610000", "145048.620000", "145050.627500", "145052.635000", "145054.642500", "145056.650000", "145058.660000", "145100.667500", "145102.675000", "145104.682500", "145106.690000", "145108.700000", "145110.707500", "145112.715000", "145114.722500", "145116.730000", "145118.740000", "145120.747500", "145122.755000", "145124.762500", "145126.772500", "145128.780000", "145130.787500", "145132.795000", "145134.802500", "145136.812500", "145138.820000", "145140.827500", "145142.835000", "145144.842500", "145146.852500", "145148.860000", "145150.867500", "145152.875000", "145154.885000", "145156.892500", "145158.900000", "145200.907500", "145202.915000", "145204.925000", "145206.932500", "145208.940000", "145210.947500", "145212.955000", "145214.965000", "145216.972500", "145218.980000", "145220.987500", "145222.997500", "145225.005000", "145227.012500", "145229.020000", "145231.027500", "145233.037500", "145235.045000", "145237.052500", "145239.060000", "145241.067500", "145243.077500", "145245.085000", "145247.092500", "145249.100000", "145251.107500", "145253.117500", "145255.125000", "145257.132500", "145259.140000", "145301.150000", "145303.157500", "145305.165000", "145307.172500", "145309.180000", "145311.190000", "145313.197500", "145315.205000", "145317.212500", "145319.220000", "145321.230000", "145323.237500", "145325.245000", "145327.252500", "145329.262500", "145331.270000", "145333.277500", "145335.285000", "145337.292500", "145339.302500", "145341.310000", "145343.317500", "145345.325000", "145347.332500", "145349.342500", "145351.350000", "145353.357500", "145355.365000", "145357.375000", "145359.382500", "145401.390000", "145403.397500", "145405.405000", "145407.415000", "145409.422500", "145411.430000", "145413.437500", "145415.445000", "145417.455000", "145419.462500", "145421.470000", "145423.477500", "145425.487500", "145427.495000", "145429.502500", "145431.510000", "145433.517500", "145435.527500", "145437.535000", "145439.542500", "145441.550000", "145443.557500", "145445.567500", "145447.575000", "145449.582500", "145451.590000", "145453.597500", "145455.607500", "145457.615000", "145459.622500", "145501.630000", "145503.640000", "145505.647500", "145507.655000", "145509.662500", "145511.670000", "145513.680000", "145515.687500", "145517.695000", "145519.702500", "145521.710000", "145523.720000", "145525.727500", "145527.735000", "145529.742500", "145531.752500", "145533.760000", "145535.767500", "145537.775000", "145539.782500", "145541.792500", "145543.800000", "145545.807500", "145547.815000", "145549.822500", "145551.832500", "145553.840000", "145555.847500", "145557.855000", "145559.865000", "145601.872500", "145603.880000", "145605.887500", "145607.895000", "145609.905000", "145611.912500", "145613.920000", "145615.927500", "145617.935000", "145619.945000", "145621.952500", "145623.960000", "145625.967500", "145627.975000", "145629.985000", "145631.992500", "145634.000000"],
      "ContentTime": ["144221.578000", "144221.578000", "144221.578000", "144221.578000", "144221.593000", "144221.593000", "144221.593000", "144221.609000", "144221.609000", "144221.609000", "144221.609000", "144221.609000", "144221.609000", "144221.609000", "144221.625000", "144221.625000", "144221.625000", "144221.625000", "144221.625000", "144221.625000", "144301.562000", "144301.578000", "144301.578000", "144301.578000", "144301.578000", "144301.578000", "144301.578000", "144301.578000", "144301.593000", "144301.593000", "144301.593000", "144301.593000", "144301.593000", "144301.593000", "144301.593000", "144301.609000", "144301.609000", "144301.609000", "144301.609000", "144301.609000", "144341.562000", "144341.562000", "144341.578000", "144341.578000", "144341.578000", "144341.578000", "144341.578000", "144341.593000", "144341.593000", "144341.593000", "144341.593000", "144341.593000", "144341.593000", "144341.609000", "144341.609000", "144341.609000", "144341.609000", "144341.625000", "144341.625000", "144341.625000", "144421.562000", "144421.562000", "144421.578000", "144421.578000", "144421.578000", "144421.578000", "144421.578000", "144421.578000", "144421.578000", "144421.593000", "144421.593000", "144421.593000", "144421.593000", "144421.609000", "144421.609000", "144421.609000", "144421.609000", "144421.609000", "144421.609000", "144421.609000", "144501.562000", "144501.562000", "144501.578000", "144501.578000", "144501.578000", "144501.578000", "144501.578000", "144501.578000", "144501.578000", "144501.593000", "144501.593000", "144501.593000", "144501.593000", "144501.593000", "144501.593000", "144501.593000", "144501.593000", "144501.609000", "144501.609000", "144501.609000", "144541.562000", "144541.562000", "144541.578000", "144541.578000", "144541.578000", "144541.578000", "144541.578000", "144541.578000", "144541.578000", "144541.593000", "144541.593000", "144541.593000", "144541.593000", "144541.593000", "144541.593000", "144541.593000", "144541.609000", "144541.609000", "144541.609000", "144541.609000", "144621.562000", "144621.578000", "144621.578000", "144621.578000", "144621.593000", "144621.593000", "144621.593000", "144621.593000", "144621.593000", "144621.593000", "144621.609000", "144621.609000", "144621.609000", "144621.609000", "144621.609000", "144621.609000", "144621.609000", "144621.625000", "144621.625000", "144621.625000", "144701.562000", "144701.562000", "144701.578000", "144701.578000", "144701.578000", "144701.578000", "144701.578000", "144701.578000", "144701.578000", "144701.593000", "144701.593000", "144701.593000", "144701.593000", "144701.593000", "144701.593000", "144701.593000", "144701.609000", "144701.609000", "144701.609000", "144701.609000", "144741.562000", "144741.562000", "144741.578000", "144741.578000", "144741.578000", "144741.578000", "144741.578000", "144741.578000", "144741.593000", "144741.593000", "144741.593000", "144741.593000", "144741.593000", "144741.593000", "144741.609000", "144741.609000", "144741.609000", "144741.625000", "144741.625000", "144741.625000", "144821.562000", "144821.562000", "144821.578000", "144821.578000", "144821.578000", "144821.578000", "144821.578000", "144821.578000", "144821.593000", "144821.593000", "144821.593000", "144821.593000", "144821.593000", "144821.593000", "144821.593000", "144821.609000", "144821.609000", "144821.609000", "144821.609000", "144821.625000", "144901.562000", "144901.578000", "144901.578000", "144901.578000", "144901.578000", "144901.578000", "144901.578000", "144901.578000", "144901.593000", "144901.593000", "144901.593000", "144901.593000", "144901.609000", "144901.609000", "144901.609000", "144901.609000", "144901.609000", "144901.609000", "144901.609000", "144901.625000", "144941.562000", "144941.562000", "144941.578000", "144941.578000", "144941.578000", "144941.578000", "144941.593000", "144941.593000", "144941.593000", "144941.593000", "144941.593000", "144941.593000", "144941.593000", "144941.609000", "144941.609000", "144941.609000", "144941.609000", "144941.609000", "144941.609000", "144941.609000", "145021.562000", "145021.562000", "145021.578000", "145021.578000", "145021.578000", "145021.578000", "145021.593000", "145021.593000", "145021.593000", "145021.593000", "145021.593000", "145021.593000", "145021.593000", "145021.609000", "145021.609000", "145021.609000", "145021.609000", "145021.609000", "145021.609000", "145021.609000", "145101.562000", "145101.562000", "145101.578000", "145101.578000", "145101.578000", "145101.578000", "145101.578000", "145101.578000", "145101.578000", "145101.593000", "145101.593000", "145101.593000", "145101.593000", "145101.593000", "145101.593000", "145101.593000", "145101.609000", "145101.609000", "145101.609000", "145101.609000", "145141.562000", "145141.578000", "145141.578000", "145141.578000", "145141.578000", "145141.578000", "145141.578000", "145141.593000", "145141.593000", "145141.593000", "145141.593000", "145141.593000", "145141.593000", "145141.593000", "145141.609000", "145141.609000", "145141.609000", "145141.625000", "145141.625000", "145141.640000", "145221.562000", "145221.562000", "145221.578000", "145221.578000", "145221.578000", "145221.578000", "145221.578000", "145221.578000", "145221.578000", "145221.593000", "145221.593000", "145221.609000", "145221.609000", "145221.609000", "145221.609000", "145221.609000", "145221.609000", "145221.625000", "145221.625000", "145221.625000", "145301.578000", "145301.578000", "145301.578000", "145301.578000", "145301.578000", "145301.578000", "145301.578000", "145301.593000", "145301.593000", "145301.593000", "145301.593000", "145301.593000", "145301.609000", "145301.609000", "145301.609000", "145301.609000", "145301.609000", "145301.609000", "145301.625000", "145301.625000", "145341.578000", "145341.578000", "145341.578000", "145341.578000", "145341.578000", "145341.578000", "145341.578000", "145341.593000", "145341.593000", "145341.593000", "145341.593000", "145341.593000", "145341.593000", "145341.609000", "145341.609000", "145341.609000", "145341.609000", "145341.625000", "145341.625000", "145341.625000", "145421.578000", "145421.578000", "145421.578000", "145421.578000", "145421.578000", "145421.578000", "145421.578000", "145421.593000", "145421.593000", "145421.593000", "145421.609000", "145421.609000", "145421.609000", "145421.609000", "145421.609000", "145421.609000", "145421.609000", "145421.625000", "145421.625000", "145421.625000", "145501.578000", "145501.578000", "145501.578000", "145501.578000", "145501.578000", "145501.578000", "145501.578000", "145501.593000", "145501.593000", "145501.593000", "145501.593000", "145501.593000", "145501.609000", "145501.609000", "145501.609000", "145501.609000", "145501.609000", "145501.609000", "145501.625000", "145501.625000", "145541.578000", "145541.578000", "145541.578000", "145541.578000", "145541.578000", "145541.593000", "145541.593000", "145541.593000", "145541.593000", "145541.593000", "145541.593000", "145541.593000", "145541.609000", "145541.609000", "145541.609000", "145541.609000", "145541.609000", "145541.609000", "145541.609000", "145541.625000", "145621.578000", "145621.578000", "145621.578000", "145621.578000", "145621.578000", "145621.593000", "145621.593000", "145621.593000", "145621.609000", "145621.609000", "145621.609000", "145621.609000", "145621.609000", "145621.625000", "145621.625000", "145621.625000", "145621.625000", "145621.625000", "145621.625000", "145621.625000", "145631.859000", "145631.875000", "145631.875000", "145631.875000", "145631.875000", "145631.875000"],
      "InstanceCreationTime": ["144221.578000", "144221.578000", "144221.578000", "144221.578000", "144221.593000", "144221.593000", "144221.593000", "144221.609000", "144221.609000", "144221.609000", "144221.609000", "144221.609000", "144221.609000", "144221.609000", "144221.625000", "144221.625000", "144221.625000", "144221.625000", "144221.625000", "144221.625000", "144301.562000", "144301.578000", "144301.578000", "144301.578000", "144301.578000", "144301.578000", "144301.578000", "144301.578000", "144301.593000", "144301.593000", "144301.593000", "144301.593000", "144301.593000", "144301.593000", "144301.593000", "144301.609000", "144301.609000", "144301.609000", "144301.609000", "144301.609000", "144341.562000", "144341.562000", "144341.578000", "144341.578000", "144341.578000", "144341.578000", "144341.578000", "144341.593000", "144341.593000", "144341.593000", "144341.593000", "144341.593000", "144341.593000", "144341.609000", "144341.609000", "144341.609000", "144341.609000", "144341.625000", "144341.625000", "144341.625000", "144421.562000", "144421.562000", "144421.578000", "144421.578000", "144421.578000", "144421.578000", "144421.578000", "144421.578000", "144421.578000", "144421.593000", "144421.593000", "144421.593000", "144421.593000", "144421.609000", "144421.609000", "144421.609000", "144421.609000", "144421.609000", "144421.609000", "144421.609000", "144501.562000", "144501.562000", "144501.578000", "144501.578000", "144501.578000", "144501.578000", "144501.578000", "144501.578000", "144501.578000", "144501.593000", "144501.593000", "144501.593000", "144501.593000", "144501.593000", "144501.593000", "144501.593000", "144501.593000", "144501.609000", "144501.609000", "144501.609000", "144541.562000", "144541.562000", "144541.578000", "144541.578000", "144541.578000", "144541.578000", "144541.578000", "144541.578000", "144541.578000", "144541.593000", "144541.593000", "144541.593000", "144541.593000", "144541.593000", "144541.593000", "144541.593000", "144541.609000", "144541.609000", "144541.609000", "144541.609000", "144621.562000", "144621.578000", "144621.578000", "144621.578000", "144621.593000", "144621.593000", "144621.593000", "144621.593000", "144621.593000", "144621.593000", "144621.609000", "144621.609000", "144621.609000", "144621.609000", "144621.609000", "144621.609000", "144621.609000", "144621.625000", "144621.625000", "144621.625000", "144701.562000", "144701.562000", "144701.578000", "144701.578000", "144701.578000", "144701.578000", "144701.578000", "144701.578000", "144701.578000", "144701.593000", "144701.593000", "144701.593000", "144701.593000", "144701.593000", "144701.593000", "144701.593000", "144701.609000", "144701.609000", "144701.609000", "144701.609000", "144741.562000", "144741.562000", "144741.578000", "144741.578000", "144741.578000", "144741.578000", "144741.578000", "144741.578000", "144741.593000", "144741.593000", "144741.593000", "144741.593000", "144741.593000", "144741.593000", "144741.609000", "144741.609000", "144741.609000", "144741.625000", "144741.625000", "144741.625000", "144821.562000", "144821.562000", "144821.578000", "144821.578000", "144821.578000", "144821.578000", "144821.578000", "144821.578000", "144821.593000", "144821.593000", "144821.593000", "144821.593000", "144821.593000", "144821.593000", "144821.593000", "144821.609000", "144821.609000", "144821.609000", "144821.609000", "144821.625000", "144901.562000", "144901.578000", "144901.578000", "144901.578000", "144901.578000", "144901.578000", "144901.578000", "144901.578000", "144901.593000", "144901.593000", "144901.593000", "144901.593000", "144901.609000", "144901.609000", "144901.609000", "144901.609000", "144901.609000", "144901.609000", "144901.609000", "144901.625000", "144941.562000", "144941.562000", "144941.578000", "144941.578000", "144941.578000", "144941.578000", "144941.593000", "144941.593000", "144941.593000", "144941.593000", "144941.593000", "144941.593000", "144941.593000", "144941.609000", "144941.609000", "144941.609000", "144941.609000", "144941.609000", "144941.609000", "144941.609000", "145021.562000", "145021.562000", "145021.578000", "145021.578000", "145021.578000", "145021.578000", "145021.593000", "145021.593000", "145021.593000", "145021.593000", "145021.593000", "145021.593000", "145021.593000", "145021.609000", "145021.609000", "145021.609000", "145021.609000", "145021.609000", "145021.609000", "145021.609000", "145101.562000", "145101.562000", "145101.578000", "145101.578000", "145101.578000", "145101.578000", "145101.578000", "145101.578000", "145101.578000", "145101.593000", "145101.593000", "145101.593000", "145101.593000", "145101.593000", "145101.593000", "145101.593000", "145101.609000", "145101.609000", "145101.609000", "145101.609000", "145141.562000", "145141.578000", "145141.578000", "145141.578000", "145141.578000", "145141.578000", "145141.578000", "145141.593000", "145141.593000", "145141.593000", "145141.593000", "145141.593000", "145141.593000", "145141.593000", "145141.609000", "145141.609000", "145141.609000", "145141.625000", "145141.625000", "145141.640000", "145221.562000", "145221.562000", "145221.578000", "145221.578000", "145221.578000", "145221.578000", "145221.578000", "145221.578000", "145221.578000", "145221.593000", "145221.593000", "145221.609000", "145221.609000", "145221.609000", "145221.609000", "145221.609000", "145221.609000", "145221.625000", "145221.625000", "145221.625000", "145301.578000", "145301.578000", "145301.578000", "145301.578000", "145301.578000", "145301.578000", "145301.578000", "145301.593000", "145301.593000", "145301.593000", "145301.593000", "145301.593000", "145301.609000", "145301.609000", "145301.609000", "145301.609000", "145301.609000", "145301.609000", "145301.625000", "145301.625000", "145341.578000", "145341.578000", "145341.578000", "145341.578000", "145341.578000", "145341.578000", "145341.578000", "145341.593000", "145341.593000", "145341.593000", "145341.593000", "145341.593000", "145341.593000", "145341.609000", "145341.609000", "145341.609000", "145341.609000", "145341.625000", "145341.625000", "145341.625000", "145421.578000", "145421.578000", "145421.578000", "145421.578000", "145421.578000", "145421.578000", "145421.578000", "145421.593000", "145421.593000", "145421.593000", "145421.609000", "145421.609000", "145421.609000", "145421.609000", "145421.609000", "145421.609000", "145421.609000", "145421.625000", "145421.625000", "145421.625000", "145501.578000", "145501.578000", "145501.578000", "145501.578000", "145501.578000", "145501.578000", "145501.578000", "145501.593000", "145501.593000", "145501.593000", "145501.593000", "145501.593000", "145501.609000", "145501.609000", "145501.609000", "145501.609000", "145501.609000", "145501.609000", "145501.625000", "145501.625000", "145541.578000", "145541.578000", "145541.578000", "145541.578000", "145541.578000", "145541.593000", "145541.593000", "145541.593000", "145541.593000", "145541.593000", "145541.593000", "145541.593000", "145541.609000", "145541.609000", "145541.609000", "145541.609000", "145541.609000", "145541.609000", "145541.609000", "145541.625000", "145621.578000", "145621.578000", "145621.578000", "145621.578000", "145621.578000", "145621.593000", "145621.593000", "145621.593000", "145621.609000", "145621.609000", "145621.609000", "145621.609000", "145621.609000", "145621.625000", "145621.625000", "145621.625000", "145621.625000", "145621.625000", "145621.625000", "145621.625000", "145631.859000", "145631.875000", "145631.875000", "145631.875000", "145631.875000", "145631.875000"],
