{
  "AcquisitionMatrixPE": 72,
  "AcquisitionNumber": 1,
  "AcquisitionTime": "12:12:49.582500",
  "BandwidthPerPixelPhaseEncode": 28.935,
  "BaseResolution": 72,
  "CoilString": "C:HEA;HEP",
  "ConversionSoftware": "dcm2niix",
  "ConversionSoftwareVersion": "v1.0.20190410  GCC6.3.0",
  "DerivedVendorReportedEchoSpacing": 0.000480003,
  "DeviceSerialNumber": "35149",
  "DwellTime": 2.9e-06,
  "EchoTime": 0.025,
  "EffectiveEchoSpacing": 0.000480003,
  "FlipAngle": 75,
  "ImageOrientationPatientDICOM": [0.999474, 0.0180213, -0.0269574, -0.0281087, 0.895992, -0.443179],
  "ImageType": [
    "ORIGINAL",
    "PRIMARY",
    "M",
    "ND",
    "MOSAIC"
],
  "ImagingFrequency": 123.255,
  "InPlanePhaseEncodingDirectionDICOM": "COL",
  "InstitutionAddress": "Street_StreetNo_Rehovot_91E162_District_IL_ZIP",
  "InstitutionName": "Weizmann",
  "InstitutionalDepartmentName": "Department",
  "MRAcquisitionType": "2D",
  "MagneticFieldStrength": 3,
  "Manufacturer": "Siemens",
  "ManufacturersModelName": "TrioTim",
  "Modality": "MR",
  "PartialFourier": 1,
  "PatientPosition": "HFS",
  "PercentPhaseFOV": 100,
  "PhaseEncodingDirection": "j-",
  "PhaseEncodingSteps": 72,
  "PhaseResolution": 1,
  "PixelBandwidth": 2395,
  "ProcedureStepDescription": "Weizmann_Sobel",
  "ProtocolName": "exp1_30_to_AC-PC",
  "PulseSequenceDetails": "%SiemensSeq%_ep2d_pace",
  "ReceiveCoilName": "HeadMatrix",
  "ReconMatrixPE": 72,
  "RepetitionTime": 2,
  "SAR": 0.123644,
  "ScanOptions": "FS",
  "ScanningSequence": "EP",
  "SequenceName": "_epfid2d1_72",
  "SequenceVariant": "SK",
  "SeriesDescription": "exp1_30_to_AC-PC",
  "SeriesNumber": 6,
  "ShimSetting": [2310, 9624, -5598, 443, 227, -325, 47, 286],
  "SliceThickness": 3.7,
  "SliceTiming": [0.9925, 0, 1.0525, 0.0575, 1.11, 0.1175, 1.17, 0.175, 1.2275, 0.2325, 1.285, 0.2925, 1.345, 0.35, 1.4025, 0.41, 1.46, 0.4675, 1.52, 0.525, 1.5775, 0.585, 1.6375, 0.6425, 1.695, 0.7, 1.7525, 0.76, 1.8125, 0.8175, 1.87, 0.8775, 1.9275, 0.935],
  "SoftwareVersions": "syngo_MR_B17",
  "SpacingBetweenSlices": 3.7,
  "StationName": "MRC35149",
  "TaskName": "bodyodor",
  "TotalReadoutTime": 0.0340802,
  "TxRefAmp": 283.599,
  "VendorReportedEchoSpacing": 0.00048,
  "dcmmeta_affine": [
    [-2.998422384262085, -0.08432614803314209, -0.05981775000691414, 114.2806625366211],
    [-0.05406399071216583, 2.6879770755767822, -1.641703724861145, -54.57984161376953],
    [-0.08087223768234253, 1.329537034034729, 3.315302610397339, -79.99864959716797],
    [0.0, 0.0, 0.0, 1.0]
],
  "dcmmeta_reorient_transform": [
    [0.0, -1.0, 0.0, 71.0],
    [1.0, 0.0, 0.0, 0.0],
    [0.0, 0.0, 1.0, 0.0],
    [0.0, 0.0, 0.0, 1.0]
],
  "dcmmeta_shape": [72, 72, 34, 450],
  "dcmmeta_slice_dim": 2,
  "dcmmeta_version": 0.6,
  "global": {
    "const": {
      "AcquisitionMatrix": [72, 0, 0, 72],
      "AngioFlag": "N",
      "BitsAllocated": 16,
      "BitsStored": 12,
      "Columns": 432,
      "EchoNumbers": 1,
      "EchoTime": 25.0,
      "EchoTrainLength": 1,
      "FlipAngle": 75.0,
      "HighBit": 11,
      "ImageOrientationPatient": [0.99947412652472, 0.01802133063613, -0.0269574117776, -0.0281087148431, 0.8959923347528, -0.4431790114774],
      "ImagePositionPatient": [-632.83082531146, -629.8339061669, 268.27214723381],
      "ImageType": [
        "ORIGINAL",
        "PRIMARY",
        "M",
        "ND",
        "MOSAIC"
],
      "ImagedNucleus": "1H",
      "ImagingFrequency": 123.254591,
      "InPlanePhaseEncodingDirection": "COL",
      "MRAcquisitionType": "2D",
      "MagneticFieldStrength": 3.0,
      "Manufacturer": "SIEMENS",
      "ManufacturerModelName": "TrioTim",
      "Modality": "MR",
      "NumberOfAverages": 1.0,
      "NumberOfPhaseEncodingSteps": 72,
      "PercentPhaseFieldOfView": 100.0,
      "PercentSampling": 100.0,
      "PerformedProcedureStepStartTime": "113827.078000",
      "PhotometricInterpretation": "MONOCHROME2",
      "PixelBandwidth": 2395.0,
      "PixelRepresentation": 0,
      "PixelSpacing": [3.0, 3.0],
      "ProtocolName": "exp1_30_to_AC-PC",
      "RepetitionTime": 2000.0,
      "Rows": 432,
      "SAR": 0.12364434703474,
      "SamplesPerPixel": 1,
      "ScanOptions": "FS",
      "ScanningSequence": "EP",
      "SequenceName": "*epfid2d1_72",
      "SequenceVariant": "SK",
      "SeriesDescription": "exp1_30_to_AC-PC",
      "SeriesNumber": 6,
      "SeriesTime": "121335.875000",
      "SliceLocation": -49.311301969808,
      "SliceThickness": 3.7000000476837,
      "SmallestImagePixelValue": 0,
      "SoftwareVersions": "syngo MR B17",
      "SpacingBetweenSlices": 3.7000000846474,
      "SpecificCharacterSet": "ISO_IR 100",
      "StudyID": "1",
      "StudyTime": "113827.031000",
      "TransmitCoilName": "Body",
      "VariableFlipAngleFlag": "N",
      "WindowCenterWidthExplanation": "Algo1",
      "dBdt": 0.0},
    "slices": {}
  },
  "time": {
    "samples": {
      "AcquisitionNumber": [1, 2, 3, 4, 5, 6, 7, 8, 9, 10, 11, 12, 13, 14, 15, 16, 17, 18, 19, 20, 21, 22, 23, 24, 25, 26, 27, 28, 29, 30, 31, 32, 33, 34, 35, 36, 37, 38, 39, 40, 41, 42, 43, 44, 45, 46, 47, 48, 49, 50, 51, 52, 53, 54, 55, 56, 57, 58, 59, 60, 61, 62, 63, 64, 65, 66, 67, 68, 69, 70, 71, 72, 73, 74, 75, 76, 77, 78, 79, 80, 81, 82, 83, 84, 85, 86, 87, 88, 89, 90, 91, 92, 93, 94, 95, 96, 97, 98, 99, 100, 101, 102, 103, 104, 105, 106, 107, 108, 109, 110, 111, 112, 113, 114, 115, 116, 117, 118, 119, 120, 121, 122, 123, 124, 125, 126, 127, 128, 129, 130, 131, 132, 133, 134, 135, 136, 137, 138, 139, 140, 141, 142, 143, 144, 145, 146, 147, 148, 149, 150, 151, 152, 153, 154, 155, 156, 157, 158, 159, 160, 161, 162, 163, 164, 165, 166, 167, 168, 169, 170, 171, 172, 173, 174, 175, 176, 177, 178, 179, 180, 181, 182, 183, 184, 185, 186, 187, 188, 189, 190, 191, 192, 193, 194, 195, 196, 197, 198, 199, 200, 201, 202, 203, 204, 205, 206, 207, 208, 209, 210, 211, 212, 213, 214, 215, 216, 217, 218, 219, 220, 221, 222, 223, 224, 225, 226, 227, 228, 229, 230, 231, 232, 233, 234, 235, 236, 237, 238, 239, 240, 241, 242, 243, 244, 245, 246, 247, 248, 249, 250, 251, 252, 253, 254, 255, 256, 257, 258, 259, 260, 261, 262, 263, 264, 265, 266, 267, 268, 269, 270, 271, 272, 273, 274, 275, 276, 277, 278, 279, 280, 281, 282, 283, 284, 285, 286, 287, 288, 289, 290, 291, 292, 293, 294, 295, 296, 297, 298, 299, 300, 301, 302, 303, 304, 305, 306, 307, 308, 309, 310, 311, 312, 313, 314, 315, 316, 317, 318, 319, 320, 321, 322, 323, 324, 325, 326, 327, 328, 329, 330, 331, 332, 333, 334, 335, 336, 337, 338, 339, 340, 341, 342, 343, 344, 345, 346, 347, 348, 349, 350, 351, 352, 353, 354, 355, 356, 357, 358, 359, 360, 361, 362, 363, 364, 365, 366, 367, 368, 369, 370, 371, 372, 373, 374, 375, 376, 377, 378, 379, 380, 381, 382, 383, 384, 385, 386, 387, 388, 389, 390, 391, 392, 393, 394, 395, 396, 397, 398, 399, 400, 401, 402, 403, 404, 405, 406, 407, 408, 409, 410, 411, 412, 413, 414, 415, 416, 417, 418, 419, 420, 421, 422, 423, 424, 425, 426, 427, 428, 429, 430, 431, 432, 433, 434, 435, 436, 437, 438, 439, 440, 441, 442, 443, 444, 445, 446, 447, 448, 449, 450],
      "AcquisitionTime": ["121249.582500", "121251.592500", "121253.600000", "121255.607500", "121257.615000", "121259.622500", "121301.632500", "121303.640000", "121305.647500", "121307.655000", "121309.665000", "121311.672500", "121313.680000", "121315.687500", "121317.695000", "121319.705000", "121321.712500", "121323.720000", "121325.727500", "121327.735000", "121329.745000", "121331.752500", "121333.760000", "121335.767500", "121337.777500", "121339.785000", "121341.792500", "121343.800000", "121345.807500", "121347.817500", "121349.825000", "121351.832500", "121353.840000", "121355.847500", "121357.857500", "121359.865000", "121401.872500", "121403.880000", "121405.887500", "121407.897500", "121409.905000", "121411.912500", "121413.920000", "121415.930000", "121417.937500", "121419.945000", "121421.952500", "121423.960000", "121425.970000", "121427.977500", "121429.985000", "121431.992500", "121434.000000", "121436.010000", "121438.017500", "121440.025000", "121442.032500", "121444.042500", "121446.050000", "121448.057500", "121450.065000", "121452.072500", "121454.082500", "121456.090000", "121458.097500", "121500.105000", "121502.112500", "121504.122500", "121506.130000", "121508.137500", "121510.145000", "121512.155000", "121514.162500", "121516.170000", "121518.177500", "121520.185000", "121522.195000", "121524.202500", "121526.210000", "121528.217500", "121530.225000", "121532.235000", "121534.242500", "121536.250000", "121538.257500", "121540.265000", "121542.275000", "121544.282500", "121546.290000", "121548.297500", "121550.307500", "121552.315000", "121554.322500", "121556.330000", "121558.337500", "121600.347500", "121602.355000", "121604.362500", "121606.370000", "121608.377500", "121610.387500", "121612.395000", "121614.402500", "121616.410000", "121618.420000", "121620.427500", "121622.435000", "121624.442500", "121626.450000", "121628.460000", "121630.467500", "121632.475000", "121634.482500", "121636.490000", "121638.500000", "121640.507500", "121642.515000", "121644.522500", "121646.532500", "121648.540000", "121650.547500", "121652.555000", "121654.562500", "121656.572500", "121658.580000", "121700.587500", "121702.595000", "121704.602500", "121706.612500", "121708.620000", "121710.627500", "121712.635000", "121714.642500", "121716.652500", "121718.660000", "121720.667500", "121722.675000", "121724.685000", "121726.692500", "121728.700000", "121730.707500", "121732.715000", "121734.725000", "121736.732500", "121738.740000", "121740.747500", "121742.755000", "121744.765000", "121746.772500", "121748.780000", "121750.787500", "121752.797500", "121754.805000", "121756.812500", "121758.820000", "121800.827500", "121802.837500", "121804.845000", "121806.852500", "121808.860000", "121810.867500", "121812.877500", "121814.885000", "121816.892500", "121818.900000", "121820.910000", "121822.917500", "121824.925000", "121826.932500", "121828.940000", "121830.950000", "121832.957500", "121834.965000", "121836.972500", "121838.980000", "121840.990000", "121842.997500", "121845.005000", "121847.012500", "121849.020000", "121851.030000", "121853.037500", "121855.045000", "121857.052500", "121859.062500", "121901.070000", "121903.077500", "121905.085000", "121907.092500", "121909.102500", "121911.110000", "121913.117500", "121915.125000", "121917.132500", "121919.142500", "121921.150000", "121923.157500", "121925.165000", "121927.175000", "121929.182500", "121931.190000", "121933.197500", "121935.205000", "121937.215000", "121939.222500", "121941.230000", "121943.237500", "121945.245000", "121947.255000", "121949.262500", "121951.270000", "121953.277500", "121955.287500", "121957.295000", "121959.302500", "122001.310000", "122003.317500", "122005.327500", "122007.335000", "122009.342500", "122011.350000", "122013.357500", "122015.367500", "122017.375000", "122019.382500", "122021.390000", "122023.397500", "122025.407500", "122027.415000", "122029.422500", "122031.430000", "122033.440000", "122035.447500", "122037.455000", "122039.462500", "122041.470000", "122043.480000", "122045.487500", "122047.495000", "122049.502500", "122051.510000", "122053.520000", "122055.527500", "122057.535000", "122059.542500", "122101.552500", "122103.560000", "122105.567500", "122107.575000", "122109.582500", "122111.592500", "122113.600000", "122115.607500", "122117.615000", "122119.622500", "122121.632500", "122123.640000", "122125.647500", "122127.655000", "122129.665000", "122131.672500", "122133.680000", "122135.687500", "122137.695000", "122139.705000", "122141.712500", "122143.720000", "122145.727500", "122147.735000", "122149.745000", "122151.752500", "122153.760000", "122155.767500", "122157.777500", "122159.785000", "122201.792500", "122203.800000", "122205.807500", "122207.817500", "122209.825000", "122211.832500", "122213.840000", "122215.847500", "122217.857500", "122219.865000", "122221.872500", "122223.880000", "122225.887500", "122227.897500", "122229.905000", "122231.912500", "122233.920000", "122235.930000", "122237.937500", "122239.945000", "122241.952500", "122243.960000", "122245.970000", "122247.977500", "122249.985000", "122251.992500", "122254.000000", "122256.010000", "122258.017500", "122300.025000", "122302.032500", "122304.042500", "122306.050000", "122308.057500", "122310.065000", "122312.072500", "122314.082500", "122316.090000", "122318.097500", "122320.105000", "122322.112500", "122324.122500", "122326.130000", "122328.137500", "122330.145000", "122332.155000", "122334.162500", "122336.170000", "122338.177500", "122340.185000", "122342.195000", "122344.202500", "122346.210000", "122348.217500", "122350.225000", "122352.235000", "122354.242500", "122356.250000", "122358.257500", "122400.265000", "122402.275000", "122404.282500", "122406.290000", "122408.297500", "122410.307500", "122412.315000", "122414.322500", "122416.330000", "122418.337500", "122420.347500", "122422.355000", "122424.362500", "122426.370000", "122428.377500", "122430.387500", "122432.395000", "122434.402500", "122436.410000", "122438.420000", "122440.427500", "122442.435000", "122444.442500", "122446.450000", "122448.460000", "122450.467500", "122452.475000", "122454.482500", "122456.490000", "122458.500000", "122500.507500", "122502.515000", "122504.522500", "122506.532500", "122508.540000", "122510.547500", "122512.555000", "122514.562500", "122516.572500", "122518.580000", "122520.587500", "122522.595000", "122524.602500", "122526.612500", "122528.620000", "122530.627500", "122532.635000", "122534.642500", "122536.652500", "122538.660000", "122540.667500", "122542.675000", "122544.685000", "122546.692500", "122548.700000", "122550.707500", "122552.715000", "122554.725000", "122556.732500", "122558.740000", "122600.747500", "122602.755000", "122604.765000", "122606.772500", "122608.780000", "122610.787500", "122612.797500", "122614.805000", "122616.812500", "122618.820000", "122620.827500", "122622.837500", "122624.845000", "122626.852500", "122628.860000", "122630.867500", "122632.877500", "122634.885000", "122636.892500", "122638.900000", "122640.910000", "122642.917500", "122644.925000", "122646.932500", "122648.940000", "122650.950000", "122652.957500", "122654.965000", "122656.972500", "122658.980000", "122700.990000", "122702.997500", "122705.005000", "122707.012500", "122709.020000", "122711.030000", "122713.037500", "122715.045000", "122717.052500", "122719.062500", "122721.070000", "122723.077500", "122725.085000", "122727.092500", "122729.102500", "122731.110000", "122733.117500", "122735.125000", "122737.132500", "122739.142500", "122741.150000", "122743.157500", "122745.165000", "122747.175000", "122749.182500", "122751.190000"],
      "ContentTime": ["121335.875000", "121335.875000", "121335.875000", "121335.890000", "121335.890000", "121335.890000", "121335.890000", "121335.890000", "121335.890000", "121335.890000", "121335.906000", "121335.906000", "121335.906000", "121335.906000", "121335.906000", "121335.906000", "121335.906000", "121335.921000", "121335.921000", "121335.921000", "121335.921000", "121335.921000", "121335.937000", "121415.859000", "121415.875000", "121415.875000", "121415.875000", "121415.875000", "121415.875000", "121415.875000", "121415.875000", "121415.890000", "121415.890000", "121415.890000", "121415.890000", "121415.890000", "121415.890000", "121415.890000", "121415.906000", "121415.906000", "121415.906000", "121415.906000", "121415.906000", "121455.859000", "121455.875000", "121455.875000", "121455.875000", "121455.875000", "121455.875000", "121455.875000", "121455.875000", "121455.890000", "121455.890000", "121455.890000", "121455.890000", "121455.890000", "121455.890000", "121455.890000", "121455.906000", "121455.906000", "121455.906000", "121455.906000", "121455.906000", "121515.875000", "121515.875000", "121515.875000", "121515.875000", "121515.890000", "121515.890000", "121515.890000", "121515.890000", "121515.890000", "121515.890000", "121555.859000", "121555.875000", "121555.875000", "121555.875000", "121555.875000", "121555.875000", "121555.875000", "121555.875000", "121555.890000", "121555.890000", "121555.890000", "121555.890000", "121555.906000", "121555.906000", "121555.906000", "121555.906000", "121555.906000", "121555.906000", "121555.921000", "121555.921000", "121635.859000", "121635.875000", "121635.875000", "121635.875000", "121635.875000", "121635.875000", "121635.875000", "121635.875000", "121635.890000", "121635.890000", "121635.890000", "121635.890000", "121635.890000", "121635.906000", "121635.906000", "121635.906000", "121635.906000", "121635.906000", "121635.906000", "121635.906000", "121715.875000", "121715.875000", "121715.875000", "121715.875000", "121715.890000", "121715.890000", "121715.890000", "121715.890000", "121715.890000", "121715.890000", "121715.890000", "121715.890000", "121715.906000", "121715.906000", "121715.906000", "121715.906000", "121715.906000", "121715.906000", "121715.906000", "121715.921000", "121755.859000", "121755.875000", "121755.875000", "121755.875000", "121755.875000", "121755.875000", "121755.875000", "121755.890000", "121755.890000", "121755.890000", "121755.906000", "121755.906000", "121755.906000", "121755.906000", "121755.906000", "121755.906000", "121755.921000", "121755.921000", "121755.921000", "121755.921000", "121835.875000", "121835.875000", "121835.875000", "121835.875000", "121835.875000", "121835.875000", "121835.875000", "121835.890000", "121835.890000", "121835.890000", "121835.890000", "121835.890000", "121835.890000", "121835.906000", "121835.906000", "121835.906000", "121835.906000", "121835.906000", "121835.906000", "121835.921000", "121915.859000", "121915.875000", "121915.875000", "121915.875000", "121915.875000", "121915.875000", "121915.875000", "121915.890000", "121915.890000", "121915.890000", "121915.890000", "121915.890000", "121915.890000", "121915.890000", "121915.890000", "121915.906000", "121915.906000", "121915.906000", "121915.906000", "121915.906000", "121955.859000", "121955.875000", "121955.875000", "121955.875000", "121955.875000", "121955.875000", "121955.875000", "121955.890000", "121955.890000", "121955.890000", "121955.890000", "121955.890000", "121955.890000", "121955.890000", "121955.890000", "121955.906000", "121955.906000", "121955.906000", "121955.906000", "121955.906000", "122035.875000", "122035.875000", "122035.875000", "122035.875000", "122035.890000", "122035.890000", "122035.890000", "122035.890000", "122035.890000", "122035.890000", "122035.890000", "122035.906000", "122035.906000", "122035.906000", "122035.906000", "122035.906000", "122035.906000", "122035.921000", "122035.921000", "122035.921000", "122115.875000", "122115.875000", "122115.875000", "122115.875000", "122115.875000", "122115.875000", "122115.875000", "122115.890000", "122115.890000", "122115.890000", "122115.890000", "122115.890000", "122115.890000", "122115.890000", "122115.890000", "122115.906000", "122115.906000", "122115.906000", "122115.906000", "122115.906000", "122155.875000", "122155.875000", "122155.875000", "122155.875000", "122155.875000", "122155.875000", "122155.875000", "122155.890000", "122155.890000", "122155.890000", "122155.890000", "122155.890000", "122155.890000", "122155.890000", "122155.890000", "122155.906000", "122155.906000", "122155.906000", "122155.906000", "122155.906000", "122235.875000", "122235.875000", "122235.875000", "122235.875000", "122235.875000", "122235.875000", "122235.875000", "122235.890000", "122235.890000", "122235.890000", "122235.890000", "122235.890000", "122235.906000", "122235.906000", "122235.906000", "122235.906000", "122235.906000", "122235.921000", "122235.921000", "122235.921000", "122315.875000", "122315.875000", "122315.875000", "122315.875000", "122315.875000", "122315.875000", "122315.875000", "122315.890000", "122315.890000", "122315.890000", "122315.890000", "122315.890000", "122315.906000", "122315.906000", "122315.906000", "122315.906000", "122315.906000", "122315.906000", "122315.906000", "122315.906000", "122355.875000", "122355.875000", "122355.875000", "122355.875000", "122355.875000", "122355.875000", "122355.875000", "122355.890000", "122355.890000", "122355.890000", "122355.890000", "122355.890000", "122355.890000", "122355.890000", "122355.890000", "122355.906000", "122355.906000", "122355.906000", "122355.906000", "122355.906000", "122435.875000", "122435.875000", "122435.875000", "122435.875000", "122435.875000", "122435.875000", "122435.875000", "122435.890000", "122435.890000", "122435.890000", "122435.890000", "122435.890000", "122435.890000", "122435.890000", "122435.890000", "122435.906000", "122435.906000", "122435.906000", "122435.906000", "122435.906000", "122515.859000", "122515.859000", "122515.859000", "122515.859000", "122515.859000", "122515.875000", "122515.875000", "122515.875000", "122515.875000", "122515.875000", "122515.875000", "122515.875000", "122515.875000", "122515.890000", "122515.890000", "122515.890000", "122515.890000", "122515.890000", "122515.890000", "122515.890000", "122555.859000", "122555.875000", "122555.890000", "122555.890000", "122555.890000", "122555.890000", "122555.890000", "122555.890000", "122555.890000", "122555.906000", "122555.906000", "122555.906000", "122555.906000", "122555.906000", "122555.921000", "122555.921000", "122555.921000", "122555.921000", "122555.937000", "122555.937000", "122635.859000", "122635.859000", "122635.859000", "122635.859000", "122635.875000", "122635.875000", "122635.875000", "122635.875000", "122635.875000", "122635.875000", "122635.890000", "122635.890000", "122635.890000", "122635.890000", "122635.890000", "122635.890000", "122635.906000", "122635.906000", "122635.906000", "122635.906000", "122715.859000", "122715.859000", "122715.859000", "122715.859000", "122715.859000", "122715.875000", "122715.875000", "122715.875000", "122715.875000", "122715.890000", "122715.890000", "122715.890000", "122715.890000", "122715.890000", "122715.890000", "122715.906000", "122715.906000", "122715.906000", "122715.906000", "122715.906000", "122748.656000", "122748.656000", "122748.656000", "122748.656000", "122748.656000", "122748.656000", "122748.671000", "122748.671000", "122748.671000", "122748.671000", "122748.671000", "122748.671000", "122748.671000", "122748.687000", "122748.687000", "122748.687000", "122748.687000"],
