{
  "AcquisitionMatrixPE": 72,
  "AcquisitionNumber": 1,
  "AcquisitionTime": "13:37:37.967500",
  "BandwidthPerPixelPhaseEncode": 28.935,
  "BaseResolution": 72,
  "CoilString": "C:HEA;HEP",
  "ConversionSoftware": "dcm2niix",
  "ConversionSoftwareVersion": "v1.0.20190410  GCC6.3.0",
  "DerivedVendorReportedEchoSpacing": 0.000480003,
  "DeviceSerialNumber": "35149",
  "DwellTime": 2.9e-06,
  "EchoTime": 0.025,
  "EffectiveEchoSpacing": 0.000480003,
  "FlipAngle": 75,
  "ImageOrientationPatientDICOM": [0.999635, 0.0234396, -0.0134223, -0.0267683, 0.92611, -0.376303],
  "ImageType": [
    "ORIGINAL",
    "PRIMARY",
    "M",
    "ND",
    "MOSAIC"
],
  "ImagingFrequency": 123.254,
  "InPlanePhaseEncodingDirectionDICOM": "COL",
  "InstitutionAddress": "Street_StreetNo_Rehovot_91E162_District_IL_ZIP",
  "InstitutionName": "Weizmann",
  "InstitutionalDepartmentName": "Department",
  "MRAcquisitionType": "2D",
  "MagneticFieldStrength": 3,
  "Manufacturer": "Siemens",
  "ManufacturersModelName": "TrioTim",
  "Modality": "MR",
  "PartialFourier": 1,
  "PatientPosition": "HFS",
  "PercentPhaseFOV": 100,
  "PhaseEncodingDirection": "j-",
  "PhaseEncodingSteps": 72,
  "PhaseResolution": 1,
  "PixelBandwidth": 2395,
  "ProcedureStepDescription": "Weizmann_Sobel",
  "ProtocolName": "exp1_30_to_AC-PC",
  "PulseSequenceDetails": "%SiemensSeq%_ep2d_pace",
  "ReceiveCoilName": "HeadMatrix",
  "ReconMatrixPE": 72,
  "RepetitionTime": 2,
  "SAR": 0.155485,
  "ScanOptions": "FS",
  "ScanningSequence": "EP",
  "SequenceName": "_epfid2d1_72",
  "SequenceVariant": "SK",
  "SeriesDescription": "exp1_30_to_AC-PC",
  "SeriesNumber": 3,
  "ShimSetting": [2378, 9250, -5449, 324, 410, -990, 724, 183],
  "SliceThickness": 3.7,
  "SliceTiming": [0.995, 0, 1.0525, 0.06, 1.1125, 0.1175, 1.17, 0.1775, 1.2275, 0.235, 1.2875, 0.2925, 1.345, 0.3525, 1.405, 0.41, 1.4625, 0.4675, 1.52, 0.5275, 1.58, 0.585, 1.6375, 0.645, 1.695, 0.7025, 1.755, 0.76, 1.8125, 0.82, 1.8725, 0.8775, 1.93, 0.935],
  "SoftwareVersions": "syngo_MR_B17",
  "SpacingBetweenSlices": 3.7,
  "StationName": "MRC35149",
  "TaskName": "bodyodor",
  "TotalReadoutTime": 0.0340802,
  "TxRefAmp": 331.637,
  "VendorReportedEchoSpacing": 0.00048,
  "dcmmeta_affine": [
    [-2.9989054203033447, -0.0803048312664032, -0.01335724163800478, 113.42509460449219],
    [-0.07031890004873276, 2.7783291339874268, -1.393144130706787, -59.947383880615234],
    [-0.04026675969362259, 1.1289103031158447, 3.4276773929595947, -81.56124114990234],
    [0.0, 0.0, 0.0, 1.0]
],
  "dcmmeta_reorient_transform": [
    [0.0, -1.0, 0.0, 71.0],
    [1.0, 0.0, 0.0, 0.0],
    [0.0, 0.0, 1.0, 0.0],
    [0.0, 0.0, 0.0, 1.0]
],
  "dcmmeta_shape": [72, 72, 34, 450],
  "dcmmeta_slice_dim": 2,
  "dcmmeta_version": 0.6,
  "global": {
    "const": {
      "AcquisitionMatrix": [72, 0, 0, 72],
      "AngioFlag": "N",
      "BitsAllocated": 16,
      "BitsStored": 12,
      "Columns": 432,
      "EchoNumbers": 1,
      "EchoTime": 25.0,
      "EchoTrainLength": 1,
      "FlipAngle": 75.0,
      "HighBit": 11,
      "ImageOrientationPatient": [0.99963514679816, 0.02343963295438, -0.0134222536403, -0.0267682781596, 0.92610970653593, -0.3763034290892],
      "ImagePositionPatient": [-633.07156235971, -650.07062534055, 209.04326093286],
      "ImageType": [
        "ORIGINAL",
        "PRIMARY",
        "M",
        "ND",
        "MOSAIC"
],
      "ImagedNucleus": "1H",
      "ImagingFrequency": 123.254491,
      "InPlanePhaseEncodingDirection": "COL",
      "MRAcquisitionType": "2D",
      "MagneticFieldStrength": 3.0,
      "Manufacturer": "SIEMENS",
      "ManufacturerModelName": "TrioTim",
      "Modality": "MR",
      "NumberOfAverages": 1.0,
      "NumberOfPhaseEncodingSteps": 72,
      "PercentPhaseFieldOfView": 100.0,
      "PercentSampling": 100.0,
      "PerformedProcedureStepStartTime": "133326.734000",
      "PhotometricInterpretation": "MONOCHROME2",
      "PixelBandwidth": 2395.0,
      "PixelRepresentation": 0,
      "PixelSpacing": [3.0, 3.0],
      "ProtocolName": "exp1_30_to_AC-PC",
      "RepetitionTime": 2000.0,
      "Rows": 432,
      "SAR": 0.15548463355004,
      "SamplesPerPixel": 1,
      "ScanOptions": "FS",
      "ScanningSequence": "EP",
      "SequenceName": "*epfid2d1_72",
      "SequenceVariant": "SK",
      "SeriesDescription": "exp1_30_to_AC-PC",
      "SeriesNumber": 3,
      "SeriesTime": "133834.578000",
      "SliceLocation": -53.39602716466,
      "SliceThickness": 3.7000000476837,
      "SmallestImagePixelValue": 0,
      "SoftwareVersions": "syngo MR B17",
      "SpacingBetweenSlices": 3.7000001085176,
      "SpecificCharacterSet": "ISO_IR 100",
      "StudyID": "1",
      "StudyTime": "133326.640000",
      "TransmitCoilName": "Body",
      "VariableFlipAngleFlag": "N",
      "WindowCenterWidthExplanation": "Algo1",
      "dBdt": 0.0},
    "slices": {}
  },
  "time": {
    "samples": {
      "AcquisitionNumber": [1, 2, 3, 4, 5, 6, 7, 8, 9, 10, 11, 12, 13, 14, 15, 16, 17, 18, 19, 20, 21, 22, 23, 24, 25, 26, 27, 28, 29, 30, 31, 32, 33, 34, 35, 36, 37, 38, 39, 40, 41, 42, 43, 44, 45, 46, 47, 48, 49, 50, 51, 52, 53, 54, 55, 56, 57, 58, 59, 60, 61, 62, 63, 64, 65, 66, 67, 68, 69, 70, 71, 72, 73, 74, 75, 76, 77, 78, 79, 80, 81, 82, 83, 84, 85, 86, 87, 88, 89, 90, 91, 92, 93, 94, 95, 96, 97, 98, 99, 100, 101, 102, 103, 104, 105, 106, 107, 108, 109, 110, 111, 112, 113, 114, 115, 116, 117, 118, 119, 120, 121, 122, 123, 124, 125, 126, 127, 128, 129, 130, 131, 132, 133, 134, 135, 136, 137, 138, 139, 140, 141, 142, 143, 144, 145, 146, 147, 148, 149, 150, 151, 152, 153, 154, 155, 156, 157, 158, 159, 160, 161, 162, 163, 164, 165, 166, 167, 168, 169, 170, 171, 172, 173, 174, 175, 176, 177, 178, 179, 180, 181, 182, 183, 184, 185, 186, 187, 188, 189, 190, 191, 192, 193, 194, 195, 196, 197, 198, 199, 200, 201, 202, 203, 204, 205, 206, 207, 208, 209, 210, 211, 212, 213, 214, 215, 216, 217, 218, 219, 220, 221, 222, 223, 224, 225, 226, 227, 228, 229, 230, 231, 232, 233, 234, 235, 236, 237, 238, 239, 240, 241, 242, 243, 244, 245, 246, 247, 248, 249, 250, 251, 252, 253, 254, 255, 256, 257, 258, 259, 260, 261, 262, 263, 264, 265, 266, 267, 268, 269, 270, 271, 272, 273, 274, 275, 276, 277, 278, 279, 280, 281, 282, 283, 284, 285, 286, 287, 288, 289, 290, 291, 292, 293, 294, 295, 296, 297, 298, 299, 300, 301, 302, 303, 304, 305, 306, 307, 308, 309, 310, 311, 312, 313, 314, 315, 316, 317, 318, 319, 320, 321, 322, 323, 324, 325, 326, 327, 328, 329, 330, 331, 332, 333, 334, 335, 336, 337, 338, 339, 340, 341, 342, 343, 344, 345, 346, 347, 348, 349, 350, 351, 352, 353, 354, 355, 356, 357, 358, 359, 360, 361, 362, 363, 364, 365, 366, 367, 368, 369, 370, 371, 372, 373, 374, 375, 376, 377, 378, 379, 380, 381, 382, 383, 384, 385, 386, 387, 388, 389, 390, 391, 392, 393, 394, 395, 396, 397, 398, 399, 400, 401, 402, 403, 404, 405, 406, 407, 408, 409, 410, 411, 412, 413, 414, 415, 416, 417, 418, 419, 420, 421, 422, 423, 424, 425, 426, 427, 428, 429, 430, 431, 432, 433, 434, 435, 436, 437, 438, 439, 440, 441, 442, 443, 444, 445, 446, 447, 448, 449, 450],
      "AcquisitionTime": ["133737.967500", "133739.975000", "133741.982500", "133743.990000", "133746.000000", "133748.007500", "133750.015000", "133752.022500", "133754.032500", "133756.040000", "133758.047500", "133800.055000", "133802.062500", "133804.072500", "133806.080000", "133808.087500", "133810.095000", "133812.102500", "133814.112500", "133816.120000", "133818.127500", "133820.135000", "133822.145000", "133824.152500", "133826.160000", "133828.167500", "133830.175000", "133832.185000", "133834.192500", "133836.200000", "133838.207500", "133840.215000", "133842.225000", "133844.232500", "133846.240000", "133848.247500", "133850.257500", "133852.265000", "133854.272500", "133856.280000", "133858.287500", "133900.297500", "133902.305000", "133904.312500", "133906.320000", "133908.327500", "133910.337500", "133912.345000", "133914.352500", "133916.360000", "133918.367500", "133920.377500", "133922.385000", "133924.392500", "133926.400000", "133928.410000", "133930.417500", "133932.425000", "133934.432500", "133936.440000", "133938.450000", "133940.457500", "133942.465000", "133944.472500", "133946.480000", "133948.490000", "133950.497500", "133952.505000", "133954.512500", "133956.522500", "133958.530000", "134000.537500", "134002.545000", "134004.552500", "134006.562500", "134008.570000", "134010.577500", "134012.585000", "134014.592500", "134016.602500", "134018.610000", "134020.617500", "134022.625000", "134024.635000", "134026.642500", "134028.650000", "134030.657500", "134032.665000", "134034.675000", "134036.682500", "134038.690000", "134040.697500", "134042.705000", "134044.715000", "134046.722500", "134048.730000", "134050.737500", "134052.745000", "134054.755000", "134056.762500", "134058.770000", "134100.777500", "134102.787500", "134104.795000", "134106.802500", "134108.810000", "134110.817500", "134112.827500", "134114.835000", "134116.842500", "134118.850000", "134120.857500", "134122.867500", "134124.875000", "134126.882500", "134128.890000", "134130.900000", "134132.907500", "134134.915000", "134136.922500", "134138.930000", "134140.940000", "134142.947500", "134144.955000", "134146.962500", "134148.970000", "134150.980000", "134152.987500", "134154.995000", "134157.002500", "134159.012500", "134201.020000", "134203.027500", "134205.035000", "134207.042500", "134209.052500", "134211.060000", "134213.067500", "134215.075000", "134217.082500", "134219.092500", "134221.100000", "134223.107500", "134225.115000", "134227.125000", "134229.132500", "134231.140000", "134233.147500", "134235.155000", "134237.165000", "134239.172500", "134241.180000", "134243.187500", "134245.195000", "134247.205000", "134249.212500", "134251.220000", "134253.227500", "134255.235000", "134257.245000", "134259.252500", "134301.260000", "134303.267500", "134305.277500", "134307.285000", "134309.292500", "134311.300000", "134313.307500", "134315.317500", "134317.325000", "134319.332500", "134321.340000", "134323.347500", "134325.357500", "134327.365000", "134329.372500", "134331.380000", "134333.390000", "134335.397500", "134337.405000", "134339.412500", "134341.420000", "134343.430000", "134345.437500", "134347.445000", "134349.452500", "134351.460000", "134353.470000", "134355.477500", "134357.485000", "134359.492500", "134401.502500", "134403.510000", "134405.517500", "134407.525000", "134409.532500", "134411.542500", "134413.550000", "134415.557500", "134417.565000", "134419.572500", "134421.582500", "134423.590000", "134425.597500", "134427.605000", "134429.612500", "134431.622500", "134433.630000", "134435.637500", "134437.645000", "134439.655000", "134441.662500", "134443.670000", "134445.677500", "134447.685000", "134449.695000", "134451.702500", "134453.710000", "134455.717500", "134457.725000", "134459.735000", "134501.742500", "134503.750000", "134505.757500", "134507.767500", "134509.775000", "134511.782500", "134513.790000", "134515.797500", "134517.807500", "134519.815000", "134521.822500", "134523.830000", "134525.837500", "134527.847500", "134529.855000", "134531.862500", "134533.870000", "134535.880000", "134537.887500", "134539.895000", "134541.902500", "134543.910000", "134545.920000", "134547.927500", "134549.935000", "134551.942500", "134553.950000", "134555.960000", "134557.967500", "134559.975000", "134601.982500", "134603.990000", "134606.000000", "134608.007500", "134610.015000", "134612.022500", "134614.032500", "134616.040000", "134618.047500", "134620.055000", "134622.062500", "134624.072500", "134626.080000", "134628.087500", "134630.095000", "134632.102500", "134634.112500", "134636.120000", "134638.127500", "134640.135000", "134642.145000", "134644.152500", "134646.160000", "134648.167500", "134650.175000", "134652.185000", "134654.192500", "134656.200000", "134658.207500", "134700.215000", "134702.225000", "134704.232500", "134706.240000", "134708.247500", "134710.257500", "134712.265000", "134714.272500", "134716.280000", "134718.287500", "134720.297500", "134722.305000", "134724.312500", "134726.320000", "134728.327500", "134730.337500", "134732.345000", "134734.352500", "134736.360000", "134738.367500", "134740.377500", "134742.385000", "134744.392500", "134746.400000", "134748.410000", "134750.417500", "134752.425000", "134754.432500", "134756.440000", "134758.450000", "134800.457500", "134802.465000", "134804.472500", "134806.480000", "134808.490000", "134810.497500", "134812.505000", "134814.512500", "134816.522500", "134818.530000", "134820.537500", "134822.545000", "134824.552500", "134826.562500", "134828.570000", "134830.577500", "134832.585000", "134834.592500", "134836.602500", "134838.610000", "134840.617500", "134842.625000", "134844.635000", "134846.642500", "134848.650000", "134850.657500", "134852.665000", "134854.675000", "134856.682500", "134858.690000", "134900.697500", "134902.705000", "134904.715000", "134906.722500", "134908.730000", "134910.737500", "134912.745000", "134914.755000", "134916.762500", "134918.770000", "134920.777500", "134922.787500", "134924.795000", "134926.802500", "134928.810000", "134930.817500", "134932.827500", "134934.835000", "134936.842500", "134938.850000", "134940.857500", "134942.867500", "134944.875000", "134946.882500", "134948.890000", "134950.900000", "134952.907500", "134954.915000", "134956.922500", "134958.930000", "135000.940000", "135002.947500", "135004.955000", "135006.962500", "135008.970000", "135010.980000", "135012.987500", "135014.995000", "135017.002500", "135019.012500", "135021.020000", "135023.027500", "135025.035000", "135027.042500", "135029.052500", "135031.060000", "135033.067500", "135035.075000", "135037.082500", "135039.092500", "135041.100000", "135043.107500", "135045.115000", "135047.125000", "135049.132500", "135051.140000", "135053.147500", "135055.155000", "135057.165000", "135059.172500", "135101.180000", "135103.187500", "135105.195000", "135107.205000", "135109.212500", "135111.220000", "135113.227500", "135115.235000", "135117.245000", "135119.252500", "135121.260000", "135123.267500", "135125.277500", "135127.285000", "135129.292500", "135131.300000", "135133.307500", "135135.317500", "135137.325000", "135139.332500", "135141.340000", "135143.347500", "135145.357500", "135147.365000", "135149.372500", "135151.380000", "135153.390000", "135155.397500", "135157.405000", "135159.412500", "135201.420000", "135203.430000", "135205.437500", "135207.445000", "135209.452500", "135211.460000", "135213.470000", "135215.477500", "135217.485000", "135219.492500", "135221.502500", "135223.510000", "135225.517500", "135227.525000", "135229.532500", "135231.542500", "135233.550000", "135235.557500", "135237.565000", "135239.572500"],
      "ContentTime": ["133834.578000", "133834.593000", "133834.593000", "133834.593000", "133834.593000", "133834.593000", "133834.593000", "133834.593000", "133834.609000", "133834.609000", "133834.609000", "133834.609000", "133834.609000", "133834.625000", "133834.625000", "133834.625000", "133834.625000", "133834.625000", "133834.625000", "133834.625000", "133834.640000", "133834.640000", "133834.640000", "133834.640000", "133834.640000", "133834.656000", "133834.656000", "133834.656000", "133914.578000", "133914.578000", "133914.578000", "133914.578000", "133914.578000", "133914.578000", "133914.593000", "133914.593000", "133914.593000", "133914.593000", "133914.609000", "133914.609000", "133914.609000", "133914.609000", "133914.625000", "133914.625000", "133914.625000", "133914.625000", "133914.625000", "133914.625000", "133954.578000", "133954.578000", "133954.578000", "133954.578000", "133954.578000", "133954.593000", "133954.593000", "133954.593000", "133954.593000", "133954.609000", "133954.609000", "133954.609000", "133954.609000", "133954.609000", "133954.609000", "133954.625000", "133954.625000", "133954.625000", "133954.625000", "133954.625000", "134034.578000", "134034.578000", "134034.578000", "134034.593000", "134034.593000", "134034.593000", "134034.593000", "134034.593000", "134034.593000", "134034.593000", "134034.609000", "134034.609000", "134034.609000", "134034.609000", "134034.625000", "134034.625000", "134034.625000", "134034.625000", "134034.625000", "134034.625000", "134114.578000", "134114.578000", "134114.578000", "134114.578000", "134114.578000", "134114.578000", "134114.593000", "134114.593000", "134114.593000", "134114.593000", "134114.593000", "134114.593000", "134114.593000", "134114.609000", "134114.609000", "134114.609000", "134114.609000", "134114.609000", "134114.609000", "134114.609000", "134154.578000", "134154.578000", "134154.578000", "134154.593000", "134154.593000", "134154.593000", "134154.609000", "134154.609000", "134154.609000", "134154.609000", "134154.609000", "134154.609000", "134154.625000", "134154.625000", "134154.625000", "134154.625000", "134154.625000", "134154.625000", "134154.625000", "134154.640000", "134234.578000", "134234.578000", "134234.578000", "134234.578000", "134234.578000", "134234.578000", "134234.593000", "134234.593000", "134234.593000", "134234.593000", "134234.593000", "134234.609000", "134234.609000", "134234.609000", "134234.609000", "134234.609000", "134234.609000", "134234.609000", "134234.625000", "134234.625000", "134314.578000", "134314.578000", "134314.578000", "134314.578000", "134314.578000", "134314.578000", "134314.593000", "134314.593000", "134314.593000", "134314.593000", "134314.593000", "134314.609000", "134314.609000", "134314.609000", "134314.609000", "134314.625000", "134314.625000", "134314.625000", "134314.625000", "134314.625000", "134354.578000", "134354.578000", "134354.578000", "134354.578000", "134354.578000", "134354.593000", "134354.593000", "134354.593000", "134354.593000", "134354.593000", "134354.593000", "134354.593000", "134354.593000", "134354.609000", "134354.609000", "134354.609000", "134354.609000", "134354.609000", "134354.609000", "134354.609000", "134434.578000", "134434.578000", "134434.578000", "134434.578000", "134434.578000", "134434.578000", "134434.593000", "134434.593000", "134434.593000", "134434.593000", "134434.593000", "134434.609000", "134434.609000", "134434.609000", "134434.609000", "134434.625000", "134434.625000", "134434.625000", "134434.625000", "134434.625000", "134514.578000", "134514.578000", "134514.578000", "134514.578000", "134514.578000", "134514.578000", "134514.593000", "134514.593000", "134514.593000", "134514.593000", "134514.593000", "134514.593000", "134514.593000", "134514.609000", "134514.609000", "134514.609000", "134514.609000", "134514.609000", "134514.609000", "134514.625000", "134554.578000", "134554.578000", "134554.578000", "134554.578000", "134554.578000", "134554.578000", "134554.593000", "134554.593000", "134554.593000", "134554.593000", "134554.593000", "134554.593000", "134554.593000", "134554.609000", "134554.609000", "134554.609000", "134554.609000", "134554.609000", "134554.609000", "134554.609000", "134634.578000", "134634.578000", "134634.578000", "134634.578000", "134634.578000", "134634.593000", "134634.593000", "134634.593000", "134634.593000", "134634.593000", "134634.593000", "134634.593000", "134634.593000", "134634.609000", "134634.609000", "134634.609000", "134634.609000", "134634.609000", "134634.609000", "134634.609000", "134714.578000", "134714.578000", "134714.578000", "134714.578000", "134714.578000", "134714.593000", "134714.593000", "134714.593000", "134714.593000", "134714.593000", "134714.593000", "134714.593000", "134714.593000", "134714.609000", "134714.609000", "134714.609000", "134714.609000", "134714.609000", "134714.609000", "134714.625000", "134754.578000", "134754.578000", "134754.578000", "134754.578000", "134754.578000", "134754.578000", "134754.593000", "134754.593000", "134754.593000", "134754.593000", "134754.593000", "134754.593000", "134754.609000", "134754.609000", "134754.609000", "134754.609000", "134754.609000", "134754.625000", "134754.625000", "134754.625000", "134834.578000", "134834.578000", "134834.578000", "134834.578000", "134834.578000", "134834.578000", "134834.593000", "134834.593000", "134834.593000", "134834.593000", "134834.593000", "134834.609000", "134834.609000", "134834.609000", "134834.609000", "134834.609000", "134834.609000", "134834.609000", "134834.625000", "134834.625000", "134914.578000", "134914.578000", "134914.578000", "134914.578000", "134914.578000", "134914.593000", "134914.593000", "134914.593000", "134914.593000", "134914.593000", "134914.593000", "134914.609000", "134914.609000", "134914.609000", "134914.609000", "134914.609000", "134914.609000", "134914.609000", "134914.625000", "134914.625000", "134954.578000", "134954.578000", "134954.578000", "134954.578000", "134954.578000", "134954.593000", "134954.593000", "134954.593000", "134954.593000", "134954.593000", "134954.609000", "134954.609000", "134954.609000", "134954.609000", "134954.609000", "134954.625000", "134954.625000", "134954.625000", "134954.625000", "134954.625000", "135034.578000", "135034.578000", "135034.578000", "135034.578000", "135034.578000", "135034.578000", "135034.593000", "135034.593000", "135034.593000", "135034.593000", "135034.593000", "135034.593000", "135034.609000", "135034.609000", "135034.609000", "135034.609000", "135034.609000", "135034.609000", "135034.609000", "135034.625000", "135114.578000", "135114.578000", "135114.578000", "135114.578000", "135114.578000", "135114.593000", "135114.593000", "135114.593000", "135114.593000", "135114.593000", "135114.593000", "135114.593000", "135114.609000", "135114.609000", "135114.609000", "135114.609000", "135114.609000", "135114.609000", "135114.609000", "135114.625000", "135154.578000", "135154.578000", "135154.578000", "135154.578000", "135154.578000", "135154.578000", "135154.593000", "135154.593000", "135154.593000", "135154.593000", "135154.593000", "135154.593000", "135154.593000", "135154.609000", "135154.609000", "135154.609000", "135154.609000", "135154.609000", "135154.609000", "135154.609000", "135234.578000", "135234.578000", "135234.578000", "135234.578000", "135234.578000", "135234.593000", "135234.593000", "135234.593000", "135234.593000", "135234.593000", "135234.609000", "135234.609000", "135234.609000", "135234.609000", "135234.609000", "135234.609000", "135234.625000", "135234.625000", "135234.625000", "135234.625000", "135238.109000", "135238.109000"],
