{
  "AcquisitionMatrixPE": 72,
  "AcquisitionNumber": 1,
  "AcquisitionTime": "10:05:40.452500",
  "BandwidthPerPixelPhaseEncode": 28.935,
  "BaseResolution": 72,
  "CoilString": "C:HEA;HEP",
  "ConversionSoftware": "dcm2niix",
  "ConversionSoftwareVersion": "v1.0.20190410  GCC6.3.0",
  "DerivedVendorReportedEchoSpacing": 0.000480003,
  "DeviceSerialNumber": "35149",
  "DwellTime": 2.9e-06,
  "EchoTime": 0.025,
  "EffectiveEchoSpacing": 0.000480003,
  "FlipAngle": 75,
  "ImageOrientationPatientDICOM": [0.996411, 0.0667477, 0.0520608, -0.038838, 0.90694, -0.419465],
  "ImageType": [
    "ORIGINAL",
    "PRIMARY",
    "M",
    "ND",
    "MOSAIC"
],
  "ImagingFrequency": 123.255,
  "InPlanePhaseEncodingDirectionDICOM": "COL",
  "InstitutionAddress": "Street_StreetNo_Rehovot_91E162_District_IL_ZIP",
  "InstitutionName": "Weizmann",
  "InstitutionalDepartmentName": "Department",
  "MRAcquisitionType": "2D",
  "MagneticFieldStrength": 3,
  "Manufacturer": "Siemens",
  "ManufacturersModelName": "TrioTim",
  "Modality": "MR",
  "PartialFourier": 1,
  "PatientPosition": "HFS",
  "PercentPhaseFOV": 100,
  "PhaseEncodingDirection": "j-",
  "PhaseEncodingSteps": 72,
  "PhaseResolution": 1,
  "PixelBandwidth": 2395,
  "ProcedureStepDescription": "Weizmann_Sobel",
  "ProtocolName": "exp1_30_to_AC-PC",
  "PulseSequenceDetails": "%SiemensSeq%_ep2d_pace",
  "ReceiveCoilName": "HeadMatrix",
  "ReconMatrixPE": 72,
  "RepetitionTime": 2,
  "SAR": 0.142452,
  "ScanOptions": "FS",
  "ScanningSequence": "EP",
  "SequenceName": "_epfid2d1_72",
  "SequenceVariant": "SK",
  "SeriesDescription": "exp1_30_to_AC-PC",
  "SeriesNumber": 3,
  "ShimSetting": [2474, 9366, -5894, 856, 681, -499, -99, 25],
  "SliceThickness": 3.7,
  "SliceTiming": [0.9925, 0, 1.0525, 0.0575, 1.11, 0.115, 1.1675, 0.175, 1.2275, 0.2325, 1.285, 0.2925, 1.345, 0.35, 1.4025, 0.4075, 1.46, 0.4675, 1.52, 0.525, 1.5775, 0.585, 1.635, 0.6425, 1.695, 0.7, 1.7525, 0.76, 1.8125, 0.8175, 1.87, 0.875, 1.9275, 0.935],
  "SoftwareVersions": "syngo_MR_B17",
  "SpacingBetweenSlices": 3.7,
  "StationName": "MRC35149",
  "TaskName": "bodyodor",
  "TotalReadoutTime": 0.0340802,
  "TxRefAmp": 283.374,
  "VendorReportedEchoSpacing": 0.00048,
  "dcmmeta_affine": [
    [-2.989232301712036, -0.11651386320590973, 0.27829307317733765, 108.26712799072266],
    [-0.20024318993091583, 2.7208213806152344, -1.5389677286148071, -54.79705810546875],
    [0.15618233382701874, 1.2583941221237183, 3.353227138519287, -76.4591064453125],
    [0.0, 0.0, 0.0, 1.0]
],
  "dcmmeta_reorient_transform": [
    [0.0, -1.0, 0.0, 71.0],
    [1.0, 0.0, 0.0, 0.0],
    [0.0, 0.0, 1.0, 0.0],
    [0.0, 0.0, 0.0, 1.0]
],
  "dcmmeta_shape": [72, 72, 34, 450],
  "dcmmeta_slice_dim": 2,
  "dcmmeta_version": 0.6,
  "global": {
    "const": {
      "AcquisitionMatrix": [72, 0, 0, 72],
      "AngioFlag": "N",
      "BitsAllocated": 16,
      "BitsStored": 12,
      "Columns": 432,
      "EchoNumbers": 1,
      "EchoTime": 25.0,
      "EchoTrainLength": 1,
      "FlipAngle": 75.0,
      "HighBit": 11,
      "ImageOrientationPatient": [0.99641076683741, 0.06674772830335, 0.05206077695183, -0.0388379545772, 0.90694044707685, -0.4194647049995],
      "ImagePositionPatient": [-617.08395884913, -664.17287236927, 211.28499787731],
      "ImageType": [
        "ORIGINAL",
        "PRIMARY",
        "M",
        "ND",
        "MOSAIC"
],
      "ImagedNucleus": "1H",
      "ImagingFrequency": 123.254633,
      "InPlanePhaseEncodingDirection": "COL",
      "MRAcquisitionType": "2D",
      "MagneticFieldStrength": 3.0,
      "Manufacturer": "SIEMENS",
      "ManufacturerModelName": "TrioTim",
      "Modality": "MR",
      "NumberOfAverages": 1.0,
      "NumberOfPhaseEncodingSteps": 72,
      "PercentPhaseFieldOfView": 100.0,
      "PercentSampling": 100.0,
      "PerformedProcedureStepStartTime": "094825.343000",
      "PhotometricInterpretation": "MONOCHROME2",
      "PixelBandwidth": 2395.0,
      "PixelRepresentation": 0,
      "PixelSpacing": [3.0, 3.0],
      "ProtocolName": "exp1_30_to_AC-PC",
      "RepetitionTime": 2000.0,
      "Rows": 432,
      "SAR": 0.14245238436157,
      "SamplesPerPixel": 1,
      "ScanOptions": "FS",
      "ScanningSequence": "EP",
      "SequenceName": "*epfid2d1_72",
      "SequenceVariant": "SK",
      "SeriesDescription": "exp1_30_to_AC-PC",
      "SeriesNumber": 3,
      "SeriesTime": "100621.515000",
      "SliceLocation": -38.357796554623,
      "SliceThickness": 3.7000000476837,
      "SmallestImagePixelValue": 0,
      "SoftwareVersions": "syngo MR B17",
      "SpacingBetweenSlices": 3.700000059416,
      "SpecificCharacterSet": "ISO_IR 100",
      "StudyID": "1",
      "StudyTime": "094825.250000",
      "TransmitCoilName": "Body",
      "VariableFlipAngleFlag": "N",
      "WindowCenterWidthExplanation": "Algo1",
      "dBdt": 0.0},
    "slices": {}
  },
  "time": {
    "samples": {
      "AcquisitionNumber": [1, 2, 3, 4, 5, 6, 7, 8, 9, 10, 11, 12, 13, 14, 15, 16, 17, 18, 19, 20, 21, 22, 23, 24, 25, 26, 27, 28, 29, 30, 31, 32, 33, 34, 35, 36, 37, 38, 39, 40, 41, 42, 43, 44, 45, 46, 47, 48, 49, 50, 51, 52, 53, 54, 55, 56, 57, 58, 59, 60, 61, 62, 63, 64, 65, 66, 67, 68, 69, 70, 71, 72, 73, 74, 75, 76, 77, 78, 79, 80, 81, 82, 83, 84, 85, 86, 87, 88, 89, 90, 91, 92, 93, 94, 95, 96, 97, 98, 99, 100, 101, 102, 103, 104, 105, 106, 107, 108, 109, 110, 111, 112, 113, 114, 115, 116, 117, 118, 119, 120, 121, 122, 123, 124, 125, 126, 127, 128, 129, 130, 131, 132, 133, 134, 135, 136, 137, 138, 139, 140, 141, 142, 143, 144, 145, 146, 147, 148, 149, 150, 151, 152, 153, 154, 155, 156, 157, 158, 159, 160, 161, 162, 163, 164, 165, 166, 167, 168, 169, 170, 171, 172, 173, 174, 175, 176, 177, 178, 179, 180, 181, 182, 183, 184, 185, 186, 187, 188, 189, 190, 191, 192, 193, 194, 195, 196, 197, 198, 199, 200, 201, 202, 203, 204, 205, 206, 207, 208, 209, 210, 211, 212, 213, 214, 215, 216, 217, 218, 219, 220, 221, 222, 223, 224, 225, 226, 227, 228, 229, 230, 231, 232, 233, 234, 235, 236, 237, 238, 239, 240, 241, 242, 243, 244, 245, 246, 247, 248, 249, 250, 251, 252, 253, 254, 255, 256, 257, 258, 259, 260, 261, 262, 263, 264, 265, 266, 267, 268, 269, 270, 271, 272, 273, 274, 275, 276, 277, 278, 279, 280, 281, 282, 283, 284, 285, 286, 287, 288, 289, 290, 291, 292, 293, 294, 295, 296, 297, 298, 299, 300, 301, 302, 303, 304, 305, 306, 307, 308, 309, 310, 311, 312, 313, 314, 315, 316, 317, 318, 319, 320, 321, 322, 323, 324, 325, 326, 327, 328, 329, 330, 331, 332, 333, 334, 335, 336, 337, 338, 339, 340, 341, 342, 343, 344, 345, 346, 347, 348, 349, 350, 351, 352, 353, 354, 355, 356, 357, 358, 359, 360, 361, 362, 363, 364, 365, 366, 367, 368, 369, 370, 371, 372, 373, 374, 375, 376, 377, 378, 379, 380, 381, 382, 383, 384, 385, 386, 387, 388, 389, 390, 391, 392, 393, 394, 395, 396, 397, 398, 399, 400, 401, 402, 403, 404, 405, 406, 407, 408, 409, 410, 411, 412, 413, 414, 415, 416, 417, 418, 419, 420, 421, 422, 423, 424, 425, 426, 427, 428, 429, 430, 431, 432, 433, 434, 435, 436, 437, 438, 439, 440, 441, 442, 443, 444, 445, 446, 447, 448, 449, 450],
      "AcquisitionTime": ["100540.452500", "100542.460000", "100544.470000", "100546.477500", "100548.485000", "100550.492500", "100552.500000", "100554.510000", "100556.517500", "100558.525000", "100600.532500", "100602.542500", "100604.550000", "100606.557500", "100608.565000", "100610.572500", "100612.582500", "100614.590000", "100616.597500", "100618.605000", "100620.612500", "100622.622500", "100624.630000", "100626.637500", "100628.645000", "100630.655000", "100632.662500", "100634.670000", "100636.677500", "100638.685000", "100640.695000", "100642.702500", "100644.710000", "100646.717500", "100648.725000", "100650.735000", "100652.742500", "100654.750000", "100656.757500", "100658.767500", "100700.775000", "100702.782500", "100704.790000", "100706.797500", "100708.807500", "100710.815000", "100712.822500", "100714.830000", "100716.837500", "100718.847500", "100720.855000", "100722.862500", "100724.870000", "100726.877500", "100728.887500", "100730.895000", "100732.902500", "100734.910000", "100736.920000", "100738.927500", "100740.935000", "100742.942500", "100744.950000", "100746.960000", "100748.967500", "100750.975000", "100752.982500", "100754.990000", "100757.000000", "100759.007500", "100801.015000", "100803.022500", "100805.032500", "100807.040000", "100809.047500", "100811.055000", "100813.062500", "100815.072500", "100817.080000", "100819.087500", "100821.095000", "100823.102500", "100825.112500", "100827.120000", "100829.127500", "100831.135000", "100833.145000", "100835.152500", "100837.160000", "100839.167500", "100841.175000", "100843.185000", "100845.192500", "100847.200000", "100849.207500", "100851.215000", "100853.225000", "100855.232500", "100857.240000", "100859.247500", "100901.257500", "100903.265000", "100905.272500", "100907.280000", "100909.287500", "100911.297500", "100913.305000", "100915.312500", "100917.320000", "100919.327500", "100921.337500", "100923.345000", "100925.352500", "100927.360000", "100929.367500", "100931.377500", "100933.385000", "100935.392500", "100937.400000", "100939.410000", "100941.417500", "100943.425000", "100945.432500", "100947.440000", "100949.450000", "100951.457500", "100953.465000", "100955.472500", "100957.480000", "100959.490000", "101001.497500", "101003.505000", "101005.512500", "101007.522500", "101009.530000", "101011.537500", "101013.545000", "101015.552500", "101017.562500", "101019.570000", "101021.577500", "101023.585000", "101025.592500", "101027.602500", "101029.610000", "101031.617500", "101033.625000", "101035.635000", "101037.642500", "101039.650000", "101041.657500", "101043.665000", "101045.675000", "101047.682500", "101049.690000", "101051.697500", "101053.705000", "101055.715000", "101057.722500", "101059.730000", "101101.737500", "101103.745000", "101105.755000", "101107.762500", "101109.770000", "101111.777500", "101113.787500", "101115.795000", "101117.802500", "101119.810000", "101121.817500", "101123.827500", "101125.835000", "101127.842500", "101129.850000", "101131.857500", "101133.867500", "101135.875000", "101137.882500", "101139.890000", "101141.900000", "101143.907500", "101145.915000", "101147.922500", "101149.930000", "101151.940000", "101153.947500", "101155.955000", "101157.962500", "101159.970000", "101201.980000", "101203.987500", "101205.995000", "101208.002500", "101210.012500", "101212.020000", "101214.027500", "101216.035000", "101218.042500", "101220.052500", "101222.060000", "101224.067500", "101226.075000", "101228.082500", "101230.092500", "101232.100000", "101234.107500", "101236.115000", "101238.122500", "101240.132500", "101242.140000", "101244.147500", "101246.155000", "101248.165000", "101250.172500", "101252.180000", "101254.187500", "101256.195000", "101258.205000", "101300.212500", "101302.220000", "101304.227500", "101306.235000", "101308.245000", "101310.252500", "101312.260000", "101314.267500", "101316.277500", "101318.285000", "101320.292500", "101322.300000", "101324.307500", "101326.317500", "101328.325000", "101330.332500", "101332.340000", "101334.347500", "101336.357500", "101338.365000", "101340.372500", "101342.380000", "101344.390000", "101346.397500", "101348.405000", "101350.412500", "101352.420000", "101354.430000", "101356.437500", "101358.445000", "101400.452500", "101402.460000", "101404.470000", "101406.477500", "101408.485000", "101410.492500", "101412.500000", "101414.510000", "101416.517500", "101418.525000", "101420.532500", "101422.542500", "101424.550000", "101426.557500", "101428.565000", "101430.572500", "101432.582500", "101434.590000", "101436.597500", "101438.605000", "101440.612500", "101442.622500", "101444.630000", "101446.637500", "101448.645000", "101450.655000", "101452.662500", "101454.670000", "101456.677500", "101458.685000", "101500.695000", "101502.702500", "101504.710000", "101506.717500", "101508.725000", "101510.735000", "101512.742500", "101514.750000", "101516.757500", "101518.767500", "101520.775000", "101522.782500", "101524.790000", "101526.797500", "101528.807500", "101530.815000", "101532.822500", "101534.830000", "101536.837500", "101538.847500", "101540.855000", "101542.862500", "101544.870000", "101546.877500", "101548.887500", "101550.895000", "101552.902500", "101554.910000", "101556.920000", "101558.927500", "101600.935000", "101602.942500", "101604.950000", "101606.960000", "101608.967500", "101610.975000", "101612.982500", "101614.990000", "101617.000000", "101619.007500", "101621.015000", "101623.022500", "101625.032500", "101627.040000", "101629.047500", "101631.055000", "101633.062500", "101635.072500", "101637.080000", "101639.087500", "101641.095000", "101643.102500", "101645.112500", "101647.120000", "101649.127500", "101651.135000", "101653.145000", "101655.152500", "101657.160000", "101659.167500", "101701.175000", "101703.185000", "101705.192500", "101707.200000", "101709.207500", "101711.215000", "101713.225000", "101715.232500", "101717.240000", "101719.247500", "101721.257500", "101723.265000", "101725.272500", "101727.280000", "101729.287500", "101731.297500", "101733.305000", "101735.312500", "101737.320000", "101739.327500", "101741.337500", "101743.345000", "101745.352500", "101747.360000", "101749.367500", "101751.377500", "101753.385000", "101755.392500", "101757.400000", "101759.410000", "101801.417500", "101803.425000", "101805.432500", "101807.440000", "101809.450000", "101811.457500", "101813.465000", "101815.472500", "101817.480000", "101819.490000", "101821.497500", "101823.505000", "101825.512500", "101827.522500", "101829.530000", "101831.537500", "101833.545000", "101835.552500", "101837.562500", "101839.570000", "101841.577500", "101843.585000", "101845.592500", "101847.602500", "101849.610000", "101851.617500", "101853.625000", "101855.635000", "101857.642500", "101859.650000", "101901.657500", "101903.665000", "101905.675000", "101907.682500", "101909.690000", "101911.697500", "101913.705000", "101915.715000", "101917.722500", "101919.730000", "101921.737500", "101923.745000", "101925.755000", "101927.762500", "101929.770000", "101931.777500", "101933.787500", "101935.795000", "101937.802500", "101939.810000", "101941.817500", "101943.827500", "101945.835000", "101947.842500", "101949.850000", "101951.857500", "101953.867500", "101955.875000", "101957.882500", "101959.890000", "102001.900000", "102003.907500", "102005.915000", "102007.922500", "102009.930000", "102011.940000", "102013.947500", "102015.955000", "102017.962500", "102019.970000", "102021.980000", "102023.987500", "102025.995000", "102028.002500", "102030.012500", "102032.020000", "102034.027500", "102036.035000", "102038.042500", "102040.052500", "102042.060000"],
      "ContentTime": ["100621.531000", "100621.531000", "100621.531000", "100621.531000", "100621.531000", "100621.531000", "100621.546000", "100621.546000", "100621.546000", "100621.546000", "100621.562000", "100621.562000", "100621.562000", "100621.562000", "100621.562000", "100621.562000", "100621.562000", "100621.578000", "100621.578000", "100621.578000", "100641.515000", "100641.515000", "100641.515000", "100641.515000", "100641.531000", "100641.531000", "100641.531000", "100641.531000", "100641.531000", "100641.546000", "100721.515000", "100721.515000", "100721.515000", "100721.515000", "100721.531000", "100721.531000", "100721.531000", "100721.531000", "100721.531000", "100721.531000", "100721.546000", "100721.546000", "100721.546000", "100721.546000", "100721.546000", "100721.546000", "100721.562000", "100721.562000", "100721.562000", "100721.562000", "100801.515000", "100801.515000", "100801.515000", "100801.515000", "100801.531000", "100801.531000", "100801.531000", "100801.531000", "100801.531000", "100801.531000", "100801.531000", "100801.546000", "100801.546000", "100801.546000", "100801.546000", "100801.562000", "100801.562000", "100801.562000", "100801.562000", "100801.562000", "100841.515000", "100841.515000", "100841.515000", "100841.515000", "100841.531000", "100841.531000", "100841.531000", "100841.531000", "100841.546000", "100841.546000", "100841.546000", "100841.546000", "100841.546000", "100841.546000", "100841.546000", "100841.562000", "100841.562000", "100841.562000", "100841.562000", "100841.562000", "100921.515000", "100921.515000", "100921.515000", "100921.515000", "100921.531000", "100921.531000", "100921.531000", "100921.531000", "100921.546000", "100921.546000", "100921.546000", "100921.546000", "100921.546000", "100921.546000", "100921.546000", "100921.562000", "100921.562000", "100921.562000", "100921.562000", "100921.562000", "101001.515000", "101001.515000", "101001.515000", "101001.515000", "101001.531000", "101001.531000", "101001.531000", "101001.531000", "101001.531000", "101001.531000", "101001.531000", "101001.546000", "101001.546000", "101001.546000", "101001.546000", "101001.546000", "101001.546000", "101001.546000", "101001.562000", "101001.562000", "101041.515000", "101041.515000", "101041.515000", "101041.515000", "101041.531000", "101041.531000", "101041.531000", "101041.531000", "101041.531000", "101041.531000", "101041.531000", "101041.546000", "101041.546000", "101041.546000", "101041.546000", "101041.546000", "101041.546000", "101041.546000", "101041.562000", "101041.562000", "101121.515000", "101121.515000", "101121.515000", "101121.515000", "101121.531000", "101121.531000", "101121.531000", "101121.531000", "101121.531000", "101121.531000", "101121.531000", "101121.546000", "101121.546000", "101121.546000", "101121.546000", "101121.546000", "101121.546000", "101121.546000", "101121.562000", "101121.562000", "101201.515000", "101201.515000", "101201.515000", "101201.515000", "101201.531000", "101201.531000", "101201.531000", "101201.531000", "101201.531000", "101201.531000", "101201.531000", "101201.546000", "101201.546000", "101201.546000", "101201.546000", "101201.546000", "101201.546000", "101201.546000", "101201.562000", "101201.562000", "101241.515000", "101241.515000", "101241.515000", "101241.515000", "101241.531000", "101241.531000", "101241.531000", "101241.531000", "101241.531000", "101241.546000", "101241.546000", "101241.546000", "101241.546000", "101241.546000", "101241.562000", "101241.562000", "101241.562000", "101241.562000", "101241.562000", "101241.562000", "101321.515000", "101321.515000", "101321.515000", "101321.515000", "101321.531000", "101321.531000", "101321.531000", "101321.531000", "101321.531000", "101321.531000", "101321.531000", "101321.546000", "101321.546000", "101321.546000", "101321.546000", "101321.546000", "101321.546000", "101321.546000", "101321.562000", "101321.562000", "101401.515000", "101401.515000", "101401.515000", "101401.531000", "101401.531000", "101401.531000", "101401.531000", "101401.531000", "101401.531000", "101401.546000", "101401.546000", "101401.546000", "101401.546000", "101401.546000", "101401.546000", "101401.546000", "101401.562000", "101401.562000", "101401.562000", "101401.562000", "101441.515000", "101441.515000", "101441.531000", "101441.531000", "101441.531000", "101441.531000", "101441.531000", "101441.531000", "101441.531000", "101441.546000", "101441.546000", "101441.546000", "101441.546000", "101441.546000", "101441.546000", "101441.546000", "101441.562000", "101441.562000", "101441.562000", "101441.562000", "101521.515000", "101521.515000", "101521.531000", "101521.531000", "101521.531000", "101521.531000", "101521.531000", "101521.531000", "101521.531000", "101521.546000", "101521.546000", "101521.546000", "101521.546000", "101521.546000", "101521.546000", "101521.546000", "101521.562000", "101521.562000", "101521.578000", "101521.578000", "101601.515000", "101601.531000", "101601.531000", "101601.531000", "101601.531000", "101601.531000", "101601.546000", "101601.546000", "101601.546000", "101601.546000", "101601.562000", "101601.562000", "101601.562000", "101601.562000", "101601.578000", "101601.578000", "101601.578000", "101601.578000", "101601.578000", "101601.578000", "101641.515000", "101641.515000", "101641.531000", "101641.531000", "101641.531000", "101641.531000", "101641.531000", "101641.531000", "101641.531000", "101641.546000", "101641.546000", "101641.546000", "101641.546000", "101641.546000", "101641.546000", "101641.546000", "101641.562000", "101641.562000", "101641.562000", "101641.562000", "101701.515000", "101701.515000", "101701.531000", "101701.531000", "101701.531000", "101701.531000", "101701.531000", "101701.531000", "101701.531000", "101701.546000", "101741.515000", "101741.515000", "101741.531000", "101741.531000", "101741.531000", "101741.531000", "101741.531000", "101741.531000", "101741.531000", "101741.546000", "101741.546000", "101741.546000", "101741.546000", "101741.546000", "101741.546000", "101741.546000", "101741.562000", "101741.562000", "101741.562000", "101741.562000", "101821.515000", "101821.515000", "101821.531000", "101821.531000", "101821.531000", "101821.531000", "101821.531000", "101821.531000", "101821.546000", "101821.546000", "101821.546000", "101821.546000", "101821.546000", "101821.546000", "101821.546000", "101821.562000", "101821.562000", "101821.562000", "101821.562000", "101821.578000", "101901.515000", "101901.515000", "101901.531000", "101901.531000", "101901.531000", "101901.531000", "101901.531000", "101901.531000", "101901.531000", "101901.546000", "101901.546000", "101901.546000", "101901.546000", "101901.562000", "101901.562000", "101901.562000", "101901.562000", "101901.562000", "101901.562000", "101901.562000", "101941.515000", "101941.515000", "101941.531000", "101941.531000", "101941.531000", "101941.531000", "101941.531000", "101941.531000", "101941.531000", "101941.546000", "101941.546000", "101941.546000", "101941.546000", "101941.562000", "101941.562000", "101941.562000", "101941.562000", "101941.562000", "101941.562000", "101941.578000", "102021.515000", "102021.515000", "102021.531000", "102021.531000", "102021.531000", "102021.531000", "102021.531000", "102021.531000", "102021.531000", "102021.546000", "102021.546000", "102021.546000", "102021.546000", "102021.546000", "102021.546000", "102021.546000", "102021.562000", "102021.562000", "102021.562000", "102021.562000", "102040.265000", "102040.265000", "102040.281000", "102040.281000", "102040.281000", "102040.281000", "102040.281000", "102040.281000", "102040.296000", "102040.296000"],
