{
  "AcquisitionMatrixPE": 72,
  "AcquisitionNumber": 1,
  "AcquisitionTime": "10:36:34.222500",
  "BandwidthPerPixelPhaseEncode": 28.935,
  "BaseResolution": 72,
  "CoilString": "C:HEA;HEP",
  "ConversionSoftware": "dcm2niix",
  "ConversionSoftwareVersion": "v1.0.20190410  GCC6.3.0",
  "DerivedVendorReportedEchoSpacing": 0.000480003,
  "DeviceSerialNumber": "35149",
  "DwellTime": 2.9e-06,
  "EchoTime": 0.025,
  "EffectiveEchoSpacing": 0.000480003,
  "FlipAngle": 75,
  "ImageOrientationPatientDICOM": [0.996581, 0.0378389, -0.0734513, -0.0678743, 0.881848, -0.466622],
  "ImageType": [
    "ORIGINAL",
    "PRIMARY",
    "M",
    "ND",
    "MOSAIC"
],
  "ImagingFrequency": 123.255,
  "InPlanePhaseEncodingDirectionDICOM": "COL",
  "InstitutionAddress": "Street_StreetNo_Rehovot_91E162_District_IL_ZIP",
  "InstitutionName": "Weizmann",
  "InstitutionalDepartmentName": "Department",
  "MRAcquisitionType": "2D",
  "MagneticFieldStrength": 3,
  "Manufacturer": "Siemens",
  "ManufacturersModelName": "TrioTim",
  "Modality": "MR",
  "PartialFourier": 1,
  "PatientPosition": "HFS",
  "PercentPhaseFOV": 100,
  "PhaseEncodingDirection": "j-",
  "PhaseEncodingSteps": 72,
  "PhaseResolution": 1,
  "PixelBandwidth": 2395,
  "ProcedureStepDescription": "Weizmann_Sobel",
  "ProtocolName": "exp1_30_to_AC-PC",
  "PulseSequenceDetails": "%SiemensSeq%_ep2d_pace",
  "ReceiveCoilName": "HeadMatrix",
  "ReconMatrixPE": 72,
  "RepetitionTime": 2,
  "SAR": 0.1301,
  "ScanOptions": "FS",
  "ScanningSequence": "EP",
  "SequenceName": "_epfid2d1_72",
  "SequenceVariant": "SK",
  "SeriesDescription": "exp1_30_to_AC-PC",
  "SeriesNumber": 8,
  "ShimSetting": [2248, 9406, -5579, 666, -28, -713, -476, 274],
  "SliceThickness": 3.7,
  "SliceTiming": [0.995, 0, 1.0525, 0.06, 1.1125, 0.1175, 1.17, 0.1775, 1.2275, 0.235, 1.2875, 0.2925, 1.345, 0.3525, 1.405, 0.41, 1.4625, 0.4675, 1.52, 0.5275, 1.58, 0.585, 1.6375, 0.645, 1.6975, 0.7025, 1.755, 0.76, 1.8125, 0.82, 1.8725, 0.8775, 1.93, 0.9375],
  "SoftwareVersions": "syngo_MR_B17",
  "SpacingBetweenSlices": 3.7,
  "StationName": "MRC35149",
  "TaskName": "blank",
  "TotalReadoutTime": 0.0340802,
  "TxRefAmp": 269.846,
  "VendorReportedEchoSpacing": 0.00048,
  "dcmmeta_affine": [
    [-2.9897420406341553, -0.20362280309200287, -0.17433060705661774, 119.5119400024414],
    [-0.11351674050092697, 2.645545244216919, -1.7390450239181519, -45.47888946533203],
    [-0.22035376727581024, 1.399867057800293, 3.2611844539642334, -70.69127655029297],
    [0.0, 0.0, 0.0, 1.0]
],
  "dcmmeta_reorient_transform": [
    [0.0, -1.0, 0.0, 71.0],
    [1.0, 0.0, 0.0, 0.0],
    [0.0, 0.0, 1.0, 0.0],
    [0.0, 0.0, 0.0, 1.0]
],
  "dcmmeta_shape": [72, 72, 34, 450],
  "dcmmeta_slice_dim": 2,
  "dcmmeta_version": 0.6,
  "global": {
    "const": {
      "AcquisitionMatrix": [72, 0, 0, 72],
      "AngioFlag": "N",
      "BitsAllocated": 16,
      "BitsStored": 12,
      "Columns": 432,
      "EchoNumbers": 1,
      "EchoTime": 25.0,
      "EchoTrainLength": 1,
      "FlipAngle": 75.0,
      "HighBit": 11,
      "ImageOrientationPatient": [0.99658071907633, 0.03783891285284, -0.0734512562141, -0.067874265956, 0.88184842928565, -0.4666223652884],
      "ImagePositionPatient": [-606.55620237929, -638.98598886175, 320.33904080955],
      "ImageType": [
        "ORIGINAL",
        "PRIMARY",
        "M",
        "ND",
        "MOSAIC"
],
      "ImagedNucleus": "1H",
      "ImagingFrequency": 123.254861,
      "InPlanePhaseEncodingDirection": "COL",
      "MRAcquisitionType": "2D",
      "MagneticFieldStrength": 3.0,
      "Manufacturer": "SIEMENS",
      "ManufacturerModelName": "TrioTim",
      "Modality": "MR",
      "NumberOfAverages": 1.0,
      "NumberOfPhaseEncodingSteps": 72,
      "PercentPhaseFieldOfView": 100.0,
      "PercentSampling": 100.0,
      "PerformedProcedureStepStartTime": "101214.687000",
      "PhotometricInterpretation": "MONOCHROME2",
      "PixelBandwidth": 2395.0,
      "PixelRepresentation": 0,
      "PixelSpacing": [3.0, 3.0],
      "ProtocolName": "exp1_30_to_AC-PC",
      "RepetitionTime": 2000.0,
      "Rows": 432,
      "SAR": 0.13010016846781,
      "SamplesPerPixel": 1,
      "ScanOptions": "FS",
      "ScanningSequence": "EP",
      "SequenceName": "*epfid2d1_72",
      "SequenceVariant": "SK",
      "SeriesDescription": "exp1_30_to_AC-PC",
      "SeriesNumber": 8,
      "SeriesTime": "103722.687000",
      "SliceLocation": -46.56272687211,
      "SliceThickness": 3.7000000476837,
      "SmallestImagePixelValue": 0,
      "SoftwareVersions": "syngo MR B17",
      "SpacingBetweenSlices": 3.6999989496866,
      "SpecificCharacterSet": "ISO_IR 100",
      "StudyID": "1",
      "StudyTime": "101214.640000",
      "TransmitCoilName": "Body",
      "VariableFlipAngleFlag": "N",
      "WindowCenterWidthExplanation": "Algo1",
      "dBdt": 0.0},
    "slices": {}
  },
  "time": {
    "samples": {
      "AcquisitionNumber": [1, 2, 3, 4, 5, 6, 7, 8, 9, 10, 11, 12, 13, 14, 15, 16, 17, 18, 19, 20, 21, 22, 23, 24, 25, 26, 27, 28, 29, 30, 31, 32, 33, 34, 35, 36, 37, 38, 39, 40, 41, 42, 43, 44, 45, 46, 47, 48, 49, 50, 51, 52, 53, 54, 55, 56, 57, 58, 59, 60, 61, 62, 63, 64, 65, 66, 67, 68, 69, 70, 71, 72, 73, 74, 75, 76, 77, 78, 79, 80, 81, 82, 83, 84, 85, 86, 87, 88, 89, 90, 91, 92, 93, 94, 95, 96, 97, 98, 99, 100, 101, 102, 103, 104, 105, 106, 107, 108, 109, 110, 111, 112, 113, 114, 115, 116, 117, 118, 119, 120, 121, 122, 123, 124, 125, 126, 127, 128, 129, 130, 131, 132, 133, 134, 135, 136, 137, 138, 139, 140, 141, 142, 143, 144, 145, 146, 147, 148, 149, 150, 151, 152, 153, 154, 155, 156, 157, 158, 159, 160, 161, 162, 163, 164, 165, 166, 167, 168, 169, 170, 171, 172, 173, 174, 175, 176, 177, 178, 179, 180, 181, 182, 183, 184, 185, 186, 187, 188, 189, 190, 191, 192, 193, 194, 195, 196, 197, 198, 199, 200, 201, 202, 203, 204, 205, 206, 207, 208, 209, 210, 211, 212, 213, 214, 215, 216, 217, 218, 219, 220, 221, 222, 223, 224, 225, 226, 227, 228, 229, 230, 231, 232, 233, 234, 235, 236, 237, 238, 239, 240, 241, 242, 243, 244, 245, 246, 247, 248, 249, 250, 251, 252, 253, 254, 255, 256, 257, 258, 259, 260, 261, 262, 263, 264, 265, 266, 267, 268, 269, 270, 271, 272, 273, 274, 275, 276, 277, 278, 279, 280, 281, 282, 283, 284, 285, 286, 287, 288, 289, 290, 291, 292, 293, 294, 295, 296, 297, 298, 299, 300, 301, 302, 303, 304, 305, 306, 307, 308, 309, 310, 311, 312, 313, 314, 315, 316, 317, 318, 319, 320, 321, 322, 323, 324, 325, 326, 327, 328, 329, 330, 331, 332, 333, 334, 335, 336, 337, 338, 339, 340, 341, 342, 343, 344, 345, 346, 347, 348, 349, 350, 351, 352, 353, 354, 355, 356, 357, 358, 359, 360, 361, 362, 363, 364, 365, 366, 367, 368, 369, 370, 371, 372, 373, 374, 375, 376, 377, 378, 379, 380, 381, 382, 383, 384, 385, 386, 387, 388, 389, 390, 391, 392, 393, 394, 395, 396, 397, 398, 399, 400, 401, 402, 403, 404, 405, 406, 407, 408, 409, 410, 411, 412, 413, 414, 415, 416, 417, 418, 419, 420, 421, 422, 423, 424, 425, 426, 427, 428, 429, 430, 431, 432, 433, 434, 435, 436, 437, 438, 439, 440, 441, 442, 443, 444, 445, 446, 447, 448, 449, 450],
      "AcquisitionTime": ["103634.222500", "103636.230000", "103638.237500", "103640.247500", "103642.255000", "103644.262500", "103646.270000", "103648.277500", "103650.287500", "103652.295000", "103654.302500", "103656.310000", "103658.317500", "103700.327500", "103702.335000", "103704.342500", "103706.350000", "103708.360000", "103710.367500", "103712.375000", "103714.382500", "103716.390000", "103718.400000", "103720.407500", "103722.415000", "103724.422500", "103726.430000", "103728.440000", "103730.447500", "103732.455000", "103734.462500", "103736.472500", "103738.480000", "103740.487500", "103742.495000", "103744.502500", "103746.512500", "103748.520000", "103750.527500", "103752.535000", "103754.542500", "103756.552500", "103758.560000", "103800.567500", "103802.575000", "103804.585000", "103806.592500", "103808.600000", "103810.607500", "103812.615000", "103814.625000", "103816.632500", "103818.640000", "103820.647500", "103822.655000", "103824.665000", "103826.672500", "103828.680000", "103830.687500", "103832.695000", "103834.705000", "103836.712500", "103838.720000", "103840.727500", "103842.737500", "103844.745000", "103846.752500", "103848.760000", "103850.767500", "103852.777500", "103854.785000", "103856.792500", "103858.800000", "103900.807500", "103902.817500", "103904.825000", "103906.832500", "103908.840000", "103910.850000", "103912.857500", "103914.865000", "103916.872500", "103918.880000", "103920.890000", "103922.897500", "103924.905000", "103926.912500", "103928.920000", "103930.930000", "103932.937500", "103934.945000", "103936.952500", "103938.962500", "103940.970000", "103942.977500", "103944.985000", "103946.992500", "103949.002500", "103951.010000", "103953.017500", "103955.025000", "103957.032500", "103959.042500", "104001.050000", "104003.057500", "104005.065000", "104007.072500", "104009.082500", "104011.090000", "104013.097500", "104015.105000", "104017.115000", "104019.122500", "104021.130000", "104023.137500", "104025.145000", "104027.155000", "104029.162500", "104031.170000", "104033.177500", "104035.185000", "104037.195000", "104039.202500", "104041.210000", "104043.217500", "104045.227500", "104047.235000", "104049.242500", "104051.250000", "104053.257500", "104055.267500", "104057.275000", "104059.282500", "104101.290000", "104103.297500", "104105.307500", "104107.315000", "104109.322500", "104111.330000", "104113.340000", "104115.347500", "104117.355000", "104119.362500", "104121.370000", "104123.380000", "104125.387500", "104127.395000", "104129.402500", "104131.410000", "104133.420000", "104135.427500", "104137.435000", "104139.442500", "104141.450000", "104143.460000", "104145.467500", "104147.475000", "104149.482500", "104151.492500", "104153.500000", "104155.507500", "104157.515000", "104159.522500", "104201.532500", "104203.540000", "104205.547500", "104207.555000", "104209.562500", "104211.572500", "104213.580000", "104215.587500", "104217.595000", "104219.605000", "104221.612500", "104223.620000", "104225.627500", "104227.635000", "104229.645000", "104231.652500", "104233.660000", "104235.667500", "104237.675000", "104239.685000", "104241.692500", "104243.700000", "104245.707500", "104247.717500", "104249.725000", "104251.732500", "104253.740000", "104255.747500", "104257.757500", "104259.765000", "104301.772500", "104303.780000", "104305.787500", "104307.797500", "104309.805000", "104311.812500", "104313.820000", "104315.827500", "104317.837500", "104319.845000", "104321.852500", "104323.860000", "104325.870000", "104327.877500", "104329.885000", "104331.892500", "104333.900000", "104335.910000", "104337.917500", "104339.925000", "104341.932500", "104343.940000", "104345.950000", "104347.957500", "104349.965000", "104351.972500", "104353.982500", "104355.990000", "104357.997500", "104400.005000", "104402.012500", "104404.022500", "104406.030000", "104408.037500", "104410.045000", "104412.052500", "104414.062500", "104416.070000", "104418.077500", "104420.085000", "104422.095000", "104424.102500", "104426.110000", "104428.117500", "104430.125000", "104432.135000", "104434.142500", "104436.150000", "104438.157500", "104440.165000", "104442.175000", "104444.182500", "104446.190000", "104448.197500", "104450.205000", "104452.215000", "104454.222500", "104456.230000", "104458.237500", "104500.247500", "104502.255000", "104504.262500", "104506.270000", "104508.277500", "104510.287500", "104512.295000", "104514.302500", "104516.310000", "104518.317500", "104520.327500", "104522.335000", "104524.342500", "104526.350000", "104528.360000", "104530.367500", "104532.375000", "104534.382500", "104536.390000", "104538.400000", "104540.407500", "104542.415000", "104544.422500", "104546.430000", "104548.440000", "104550.447500", "104552.455000", "104554.462500", "104556.472500", "104558.480000", "104600.487500", "104602.495000", "104604.502500", "104606.512500", "104608.520000", "104610.527500", "104612.535000", "104614.542500", "104616.552500", "104618.560000", "104620.567500", "104622.575000", "104624.585000", "104626.592500", "104628.600000", "104630.607500", "104632.615000", "104634.625000", "104636.632500", "104638.640000", "104640.647500", "104642.655000", "104644.665000", "104646.672500", "104648.680000", "104650.687500", "104652.695000", "104654.705000", "104656.712500", "104658.720000", "104700.727500", "104702.737500", "104704.745000", "104706.752500", "104708.760000", "104710.767500", "104712.777500", "104714.785000", "104716.792500", "104718.800000", "104720.807500", "104722.817500", "104724.825000", "104726.832500", "104728.840000", "104730.850000", "104732.857500", "104734.865000", "104736.872500", "104738.880000", "104740.890000", "104742.897500", "104744.905000", "104746.912500", "104748.920000", "104750.930000", "104752.937500", "104754.945000", "104756.952500", "104758.962500", "104800.970000", "104802.977500", "104804.985000", "104806.992500", "104809.002500", "104811.010000", "104813.017500", "104815.025000", "104817.032500", "104819.042500", "104821.050000", "104823.057500", "104825.065000", "104827.072500", "104829.082500", "104831.090000", "104833.097500", "104835.105000", "104837.115000", "104839.122500", "104841.130000", "104843.137500", "104845.145000", "104847.155000", "104849.162500", "104851.170000", "104853.177500", "104855.185000", "104857.195000", "104859.202500", "104901.210000", "104903.217500", "104905.227500", "104907.235000", "104909.242500", "104911.250000", "104913.257500", "104915.267500", "104917.275000", "104919.282500", "104921.290000", "104923.297500", "104925.307500", "104927.315000", "104929.322500", "104931.330000", "104933.340000", "104935.347500", "104937.355000", "104939.362500", "104941.370000", "104943.380000", "104945.387500", "104947.395000", "104949.402500", "104951.410000", "104953.420000", "104955.427500", "104957.435000", "104959.442500", "105001.450000", "105003.460000", "105005.467500", "105007.475000", "105009.482500", "105011.492500", "105013.500000", "105015.507500", "105017.515000", "105019.522500", "105021.532500", "105023.540000", "105025.547500", "105027.555000", "105029.562500", "105031.572500", "105033.580000", "105035.587500", "105037.595000", "105039.605000", "105041.612500", "105043.620000", "105045.627500", "105047.635000", "105049.645000", "105051.652500", "105053.660000", "105055.667500", "105057.675000", "105059.685000", "105101.692500", "105103.700000", "105105.707500", "105107.717500", "105109.725000", "105111.732500", "105113.740000", "105115.747500", "105117.757500", "105119.765000", "105121.772500", "105123.780000", "105125.787500", "105127.797500", "105129.805000", "105131.812500", "105133.820000", "105135.827500"],
      "ContentTime": ["103722.703000", "103722.703000", "103722.703000", "103722.703000", "103722.703000", "103722.703000", "103722.703000", "103722.718000", "103722.718000", "103722.718000", "103722.718000", "103722.718000", "103722.718000", "103722.718000", "103722.734000", "103722.734000", "103722.734000", "103722.734000", "103722.750000", "103722.750000", "103722.750000", "103722.750000", "103722.750000", "103722.750000", "103802.687000", "103802.687000", "103802.687000", "103802.687000", "103802.703000", "103802.703000", "103802.703000", "103802.703000", "103802.703000", "103802.718000", "103802.718000", "103802.718000", "103802.718000", "103802.718000", "103802.718000", "103802.734000", "103802.734000", "103802.734000", "103802.734000", "103802.734000", "103822.687000", "103822.687000", "103822.687000", "103822.703000", "103822.703000", "103822.703000", "103822.703000", "103822.703000", "103822.703000", "103822.718000", "103902.687000", "103902.687000", "103902.687000", "103902.687000", "103902.703000", "103902.703000", "103902.703000", "103902.703000", "103902.703000", "103902.703000", "103902.703000", "103902.718000", "103902.718000", "103902.718000", "103902.718000", "103902.718000", "103902.718000", "103902.718000", "103902.734000", "103902.734000", "103942.687000", "103942.687000", "103942.687000", "103942.687000", "103942.703000", "103942.703000", "103942.703000", "103942.703000", "103942.718000", "103942.718000", "103942.718000", "103942.718000", "103942.718000", "103942.718000", "103942.718000", "103942.734000", "103942.734000", "103942.734000", "103942.734000", "103942.734000", "104022.687000", "104022.687000", "104022.687000", "104022.687000", "104022.703000", "104022.703000", "104022.703000", "104022.703000", "104022.703000", "104022.703000", "104022.703000", "104022.718000", "104022.718000", "104022.718000", "104022.718000", "104022.718000", "104022.718000", "104022.718000", "104022.734000", "104022.734000", "104102.687000", "104102.687000", "104102.687000", "104102.687000", "104102.703000", "104102.703000", "104102.703000", "104102.703000", "104102.703000", "104102.703000", "104102.718000", "104102.718000", "104102.718000", "104102.718000", "104102.718000", "104102.734000", "104102.734000", "104102.734000", "104102.734000", "104102.734000", "104142.687000", "104142.687000", "104142.687000", "104142.687000", "104142.703000", "104142.703000", "104142.703000", "104142.703000", "104142.703000", "104142.703000", "104142.703000", "104142.718000", "104142.718000", "104142.718000", "104142.718000", "104142.718000", "104142.718000", "104142.718000", "104142.734000", "104142.734000", "104222.687000", "104222.687000", "104222.687000", "104222.687000", "104222.703000", "104222.703000", "104222.703000", "104222.703000", "104222.703000", "104222.703000", "104222.703000", "104222.718000", "104222.718000", "104222.718000", "104222.718000", "104222.718000", "104222.718000", "104222.718000", "104222.734000", "104222.734000", "104302.687000", "104302.687000", "104302.687000", "104302.687000", "104302.703000", "104302.703000", "104302.703000", "104302.703000", "104302.703000", "104302.703000", "104302.703000", "104302.718000", "104302.718000", "104302.718000", "104302.718000", "104302.718000", "104302.718000", "104302.718000", "104302.734000", "104302.734000", "104342.687000", "104342.687000", "104342.687000", "104342.703000", "104342.703000", "104342.703000", "104342.703000", "104342.703000", "104342.703000", "104342.703000", "104342.718000", "104342.718000", "104342.718000", "104342.718000", "104342.718000", "104342.718000", "104342.718000", "104342.734000", "104342.734000", "104342.734000", "104422.687000", "104422.687000", "104422.687000", "104422.687000", "104422.703000", "104422.703000", "104422.703000", "104422.703000", "104422.703000", "104422.703000", "104422.703000", "104422.718000", "104422.718000", "104422.734000", "104422.734000", "104422.734000", "104422.734000", "104422.734000", "104422.734000", "104422.734000", "104502.687000", "104502.687000", "104502.687000", "104502.703000", "104502.703000", "104502.703000", "104502.703000", "104502.703000", "104502.703000", "104502.703000", "104502.718000", "104502.718000", "104502.718000", "104502.718000", "104502.718000", "104502.718000", "104502.718000", "104502.734000", "104502.734000", "104502.734000", "104542.687000", "104542.687000", "104542.703000", "104542.703000", "104542.703000", "104542.703000", "104542.703000", "104542.703000", "104542.718000", "104542.718000", "104542.718000", "104542.718000", "104542.718000", "104542.718000", "104542.734000", "104542.734000", "104542.734000", "104542.734000", "104542.734000", "104542.734000", "104622.687000", "104622.687000", "104622.687000", "104622.687000", "104622.703000", "104622.703000", "104622.703000", "104622.703000", "104622.718000", "104622.718000", "104622.718000", "104622.718000", "104622.718000", "104622.718000", "104622.718000", "104622.734000", "104622.734000", "104622.734000", "104622.734000", "104622.734000", "104702.687000", "104702.687000", "104702.687000", "104702.687000", "104702.703000", "104702.703000", "104702.703000", "104702.703000", "104702.718000", "104702.718000", "104702.718000", "104702.718000", "104702.718000", "104702.718000", "104702.718000", "104702.734000", "104702.734000", "104702.734000", "104702.734000", "104702.734000", "104742.687000", "104742.687000", "104742.687000", "104742.687000", "104742.703000", "104742.703000", "104742.703000", "104742.703000", "104742.703000", "104742.703000", "104742.703000", "104742.718000", "104742.718000", "104742.718000", "104742.718000", "104742.718000", "104742.718000", "104742.718000", "104742.734000", "104742.734000", "104822.687000", "104822.687000", "104822.687000", "104822.687000", "104822.703000", "104822.703000", "104822.703000", "104822.703000", "104822.718000", "104822.718000", "104822.718000", "104822.718000", "104822.718000", "104822.718000", "104822.718000", "104822.734000", "104822.734000", "104822.734000", "104822.734000", "104822.734000", "104902.687000", "104902.687000", "104902.687000", "104902.687000", "104902.703000", "104902.703000", "104902.703000", "104902.703000", "104902.703000", "104902.703000", "104902.703000", "104902.718000", "104902.718000", "104902.718000", "104902.718000", "104902.718000", "104902.718000", "104902.718000", "104902.734000", "104902.734000", "104942.687000", "104942.687000", "104942.703000", "104942.703000", "104942.703000", "104942.703000", "104942.703000", "104942.703000", "104942.718000", "104942.718000", "104942.718000", "104942.718000", "104942.718000", "104942.718000", "104942.718000", "104942.734000", "104942.734000", "104942.734000", "104942.734000", "104942.734000", "105022.687000", "105022.687000", "105022.687000", "105022.687000", "105022.703000", "105022.703000", "105022.703000", "105022.703000", "105022.703000", "105022.718000", "105022.718000", "105022.718000", "105022.718000", "105022.718000", "105022.734000", "105022.734000", "105022.734000", "105022.734000", "105022.734000", "105022.734000", "105102.687000", "105102.687000", "105102.687000", "105102.687000", "105102.703000", "105102.703000", "105102.703000", "105102.703000", "105102.703000", "105102.703000", "105102.718000", "105102.718000", "105102.718000", "105102.718000", "105102.718000", "105102.718000", "105102.734000", "105102.734000", "105102.734000", "105102.750000", "105134.375000", "105134.375000", "105134.375000", "105134.375000", "105134.390000", "105134.390000", "105134.390000", "105134.390000", "105134.406000", "105134.406000", "105134.406000", "105134.406000", "105134.406000", "105134.406000", "105134.406000", "105134.421000"],
