{
  "AcquisitionMatrixPE": 72,
  "AcquisitionNumber": 1,
  "AcquisitionTime": "10:57:35.292500",
  "BandwidthPerPixelPhaseEncode": 28.935,
  "BaseResolution": 72,
  "CoilString": "C:HEA;HEP",
  "ConversionSoftware": "dcm2niix",
  "ConversionSoftwareVersion": "v1.0.20190410  GCC6.3.0",
  "DerivedVendorReportedEchoSpacing": 0.000480003,
  "DeviceSerialNumber": "35149",
  "DwellTime": 2.9e-06,
  "EchoTime": 0.025,
  "EffectiveEchoSpacing": 0.000480003,
  "FlipAngle": 75,
  "ImageOrientationPatientDICOM": [0.996576, 0.0378969, -0.0734819, -0.0679398, 0.881846, -0.466618],
  "ImageType": [
    "ORIGINAL",
    "PRIMARY",
    "M",
    "ND",
    "MOSAIC"
],
  "ImagingFrequency": 123.255,
  "InPlanePhaseEncodingDirectionDICOM": "COL",
  "InstitutionAddress": "Street_StreetNo_Rehovot_91E162_District_IL_ZIP",
  "InstitutionName": "Weizmann",
  "InstitutionalDepartmentName": "Department",
  "MRAcquisitionType": "2D",
  "MagneticFieldStrength": 3,
  "Manufacturer": "Siemens",
  "ManufacturersModelName": "TrioTim",
  "Modality": "MR",
  "PartialFourier": 1,
  "PatientPosition": "HFS",
  "PercentPhaseFOV": 100,
  "PhaseEncodingDirection": "j-",
  "PhaseEncodingSteps": 72,
  "PhaseResolution": 1,
  "PixelBandwidth": 2395,
  "ProcedureStepDescription": "Weizmann_Sobel",
  "ProtocolName": "exp1_30_to_AC-PC",
  "PulseSequenceDetails": "%SiemensSeq%_ep2d_pace",
  "ReceiveCoilName": "HeadMatrix",
  "ReconMatrixPE": 72,
  "RepetitionTime": 2,
  "SAR": 0.1301,
  "ScanOptions": "FS",
  "ScanningSequence": "EP",
  "SequenceName": "_epfid2d1_72",
  "SequenceVariant": "SK",
  "SeriesDescription": "exp1_30_to_AC-PC",
  "SeriesNumber": 10,
  "ShimSetting": [2248, 9406, -5579, 666, -28, -713, -476, 274],
  "SliceThickness": 3.7,
  "SliceTiming": [0.995, 0, 1.0525, 0.06, 1.1125, 0.1175, 1.17, 0.175, 1.2275, 0.235, 1.2875, 0.2925, 1.345, 0.3525, 1.4025, 0.41, 1.4625, 0.4675, 1.52, 0.5275, 1.58, 0.585, 1.6375, 0.645, 1.695, 0.7025, 1.755, 0.76, 1.8125, 0.82, 1.8725, 0.8775, 1.93, 0.935],
  "SoftwareVersions": "syngo_MR_B17",
  "SpacingBetweenSlices": 3.7,
  "StationName": "MRC35149",
  "TaskName": "bodyodor",
  "TotalReadoutTime": 0.0340802,
  "TxRefAmp": 269.846,
  "VendorReportedEchoSpacing": 0.00048,
  "dcmmeta_affine": [
    [-2.9897286891937256, -0.20381931960582733, -0.17433057725429535, 119.5183334350586],
    [-0.11369063705205917, 2.645537853240967, -1.7390450239181519, -45.47237014770508],
    [-0.22044576704502106, 1.3998526334762573, 3.2611844539642334, -70.68746185302734],
    [0.0, 0.0, 0.0, 1.0]
],
  "dcmmeta_reorient_transform": [
    [0.0, -1.0, 0.0, 71.0],
    [1.0, 0.0, 0.0, 0.0],
    [0.0, 0.0, 1.0, 0.0],
    [0.0, 0.0, 0.0, 1.0]
],
  "dcmmeta_shape": [72, 72, 34, 450],
  "dcmmeta_slice_dim": 2,
  "dcmmeta_version": 0.6,
  "global": {
    "const": {
      "AcquisitionMatrix": [72, 0, 0, 72],
      "AngioFlag": "N",
      "BitsAllocated": 16,
      "BitsStored": 12,
      "Columns": 432,
      "EchoNumbers": 1,
      "EchoTime": 25.0,
      "EchoTrainLength": 1,
      "FlipAngle": 75.0,
      "HighBit": 11,
      "ImageOrientationPatient": [0.99657625577643, 0.03789687884567, -0.0734819229225, -0.0679397716903, 0.88184593329749, -0.4666175493371],
      "ImagePositionPatient": [-606.51086244512, -639.02193342477, 320.35579210015],
      "ImageType": [
        "ORIGINAL",
        "PRIMARY",
        "M",
        "ND",
        "MOSAIC"
],
      "ImagedNucleus": "1H",
      "ImagingFrequency": 123.25488,
      "InPlanePhaseEncodingDirection": "COL",
      "MRAcquisitionType": "2D",
      "MagneticFieldStrength": 3.0,
      "Manufacturer": "SIEMENS",
      "ManufacturerModelName": "TrioTim",
      "Modality": "MR",
      "NumberOfAverages": 1.0,
      "NumberOfPhaseEncodingSteps": 72,
      "PercentPhaseFieldOfView": 100.0,
      "PercentSampling": 100.0,
      "PerformedProcedureStepStartTime": "101214.687000",
      "PhotometricInterpretation": "MONOCHROME2",
      "PixelBandwidth": 2395.0,
      "PixelRepresentation": 0,
      "PixelSpacing": [3.0, 3.0],
      "ProtocolName": "exp1_30_to_AC-PC",
      "RepetitionTime": 2000.0,
      "Rows": 432,
      "SAR": 0.13010016846781,
      "SamplesPerPixel": 1,
      "ScanOptions": "FS",
      "ScanningSequence": "EP",
      "SequenceName": "*epfid2d1_72",
      "SequenceVariant": "SK",
      "SeriesDescription": "exp1_30_to_AC-PC",
      "SeriesNumber": 10,
      "SeriesTime": "105824.484000",
      "SliceLocation": -46.562727203238,
      "SliceThickness": 3.7000000476837,
      "SmallestImagePixelValue": 0,
      "SoftwareVersions": "syngo MR B17",
      "SpacingBetweenSlices": 3.6999989496866,
      "SpecificCharacterSet": "ISO_IR 100",
      "StudyID": "1",
      "StudyTime": "101214.640000",
      "TransmitCoilName": "Body",
      "VariableFlipAngleFlag": "N",
      "WindowCenterWidthExplanation": "Algo1",
      "dBdt": 0.0},
    "slices": {}
  },
  "time": {
    "samples": {
      "AcquisitionNumber": [1, 2, 3, 4, 5, 6, 7, 8, 9, 10, 11, 12, 13, 14, 15, 16, 17, 18, 19, 20, 21, 22, 23, 24, 25, 26, 27, 28, 29, 30, 31, 32, 33, 34, 35, 36, 37, 38, 39, 40, 41, 42, 43, 44, 45, 46, 47, 48, 49, 50, 51, 52, 53, 54, 55, 56, 57, 58, 59, 60, 61, 62, 63, 64, 65, 66, 67, 68, 69, 70, 71, 72, 73, 74, 75, 76, 77, 78, 79, 80, 81, 82, 83, 84, 85, 86, 87, 88, 89, 90, 91, 92, 93, 94, 95, 96, 97, 98, 99, 100, 101, 102, 103, 104, 105, 106, 107, 108, 109, 110, 111, 112, 113, 114, 115, 116, 117, 118, 119, 120, 121, 122, 123, 124, 125, 126, 127, 128, 129, 130, 131, 132, 133, 134, 135, 136, 137, 138, 139, 140, 141, 142, 143, 144, 145, 146, 147, 148, 149, 150, 151, 152, 153, 154, 155, 156, 157, 158, 159, 160, 161, 162, 163, 164, 165, 166, 167, 168, 169, 170, 171, 172, 173, 174, 175, 176, 177, 178, 179, 180, 181, 182, 183, 184, 185, 186, 187, 188, 189, 190, 191, 192, 193, 194, 195, 196, 197, 198, 199, 200, 201, 202, 203, 204, 205, 206, 207, 208, 209, 210, 211, 212, 213, 214, 215, 216, 217, 218, 219, 220, 221, 222, 223, 224, 225, 226, 227, 228, 229, 230, 231, 232, 233, 234, 235, 236, 237, 238, 239, 240, 241, 242, 243, 244, 245, 246, 247, 248, 249, 250, 251, 252, 253, 254, 255, 256, 257, 258, 259, 260, 261, 262, 263, 264, 265, 266, 267, 268, 269, 270, 271, 272, 273, 274, 275, 276, 277, 278, 279, 280, 281, 282, 283, 284, 285, 286, 287, 288, 289, 290, 291, 292, 293, 294, 295, 296, 297, 298, 299, 300, 301, 302, 303, 304, 305, 306, 307, 308, 309, 310, 311, 312, 313, 314, 315, 316, 317, 318, 319, 320, 321, 322, 323, 324, 325, 326, 327, 328, 329, 330, 331, 332, 333, 334, 335, 336, 337, 338, 339, 340, 341, 342, 343, 344, 345, 346, 347, 348, 349, 350, 351, 352, 353, 354, 355, 356, 357, 358, 359, 360, 361, 362, 363, 364, 365, 366, 367, 368, 369, 370, 371, 372, 373, 374, 375, 376, 377, 378, 379, 380, 381, 382, 383, 384, 385, 386, 387, 388, 389, 390, 391, 392, 393, 394, 395, 396, 397, 398, 399, 400, 401, 402, 403, 404, 405, 406, 407, 408, 409, 410, 411, 412, 413, 414, 415, 416, 417, 418, 419, 420, 421, 422, 423, 424, 425, 426, 427, 428, 429, 430, 431, 432, 433, 434, 435, 436, 437, 438, 439, 440, 441, 442, 443, 444, 445, 446, 447, 448, 449, 450],
      "AcquisitionTime": ["105735.292500", "105737.300000", "105739.307500", "105741.315000", "105743.325000", "105745.332500", "105747.340000", "105749.347500", "105751.357500", "105753.365000", "105755.372500", "105757.380000", "105759.387500", "105801.397500", "105803.405000", "105805.412500", "105807.420000", "105809.427500", "105811.437500", "105813.445000", "105815.452500", "105817.460000", "105819.467500", "105821.477500", "105823.485000", "105825.492500", "105827.500000", "105829.510000", "105831.517500", "105833.525000", "105835.532500", "105837.540000", "105839.550000", "105841.557500", "105843.565000", "105845.572500", "105847.580000", "105849.590000", "105851.597500", "105853.605000", "105855.612500", "105857.622500", "105859.630000", "105901.637500", "105903.645000", "105905.652500", "105907.662500", "105909.670000", "105911.677500", "105913.685000", "105915.692500", "105917.702500", "105919.710000", "105921.717500", "105923.725000", "105925.735000", "105927.742500", "105929.750000", "105931.757500", "105933.765000", "105935.775000", "105937.782500", "105939.790000", "105941.797500", "105943.805000", "105945.815000", "105947.822500", "105949.830000", "105951.837500", "105953.845000", "105955.855000", "105957.862500", "105959.870000", "110001.877500", "110003.887500", "110005.895000", "110007.902500", "110009.910000", "110011.917500", "110013.927500", "110015.935000", "110017.942500", "110019.950000", "110021.957500", "110023.967500", "110025.975000", "110027.982500", "110029.990000", "110032.000000", "110034.007500", "110036.015000", "110038.022500", "110040.030000", "110042.040000", "110044.047500", "110046.055000", "110048.062500", "110050.070000", "110052.080000", "110054.087500", "110056.095000", "110058.102500", "110100.112500", "110102.120000", "110104.127500", "110106.135000", "110108.142500", "110110.152500", "110112.160000", "110114.167500", "110116.175000", "110118.182500", "110120.192500", "110122.200000", "110124.207500", "110126.215000", "110128.222500", "110130.232500", "110132.240000", "110134.247500", "110136.255000", "110138.265000", "110140.272500", "110142.280000", "110144.287500", "110146.295000", "110148.305000", "110150.312500", "110152.320000", "110154.327500", "110156.335000", "110158.345000", "110200.352500", "110202.360000", "110204.367500", "110206.377500", "110208.385000", "110210.392500", "110212.400000", "110214.407500", "110216.417500", "110218.425000", "110220.432500", "110222.440000", "110224.447500", "110226.457500", "110228.465000", "110230.472500", "110232.480000", "110234.490000", "110236.497500", "110238.505000", "110240.512500", "110242.520000", "110244.530000", "110246.537500", "110248.545000", "110250.552500", "110252.560000", "110254.570000", "110256.577500", "110258.585000", "110300.592500", "110302.600000", "110304.610000", "110306.617500", "110308.625000", "110310.632500", "110312.642500", "110314.650000", "110316.657500", "110318.665000", "110320.672500", "110322.682500", "110324.690000", "110326.697500", "110328.705000", "110330.712500", "110332.722500", "110334.730000", "110336.737500", "110338.745000", "110340.755000", "110342.762500", "110344.770000", "110346.777500", "110348.785000", "110350.795000", "110352.802500", "110354.810000", "110356.817500", "110358.825000", "110400.835000", "110402.842500", "110404.850000", "110406.857500", "110408.867500", "110410.875000", "110412.882500", "110414.890000", "110416.897500", "110418.907500", "110420.915000", "110422.922500", "110424.930000", "110426.937500", "110428.947500", "110430.955000", "110432.962500", "110434.970000", "110436.980000", "110438.987500", "110440.995000", "110443.002500", "110445.010000", "110447.020000", "110449.027500", "110451.035000", "110453.042500", "110455.050000", "110457.060000", "110459.067500", "110501.075000", "110503.082500", "110505.090000", "110507.100000", "110509.107500", "110511.115000", "110513.122500", "110515.132500", "110517.140000", "110519.147500", "110521.155000", "110523.162500", "110525.172500", "110527.180000", "110529.187500", "110531.195000", "110533.202500", "110535.212500", "110537.220000", "110539.227500", "110541.235000", "110543.245000", "110545.252500", "110547.260000", "110549.267500", "110551.275000", "110553.285000", "110555.292500", "110557.300000", "110559.307500", "110601.315000", "110603.325000", "110605.332500", "110607.340000", "110609.347500", "110611.357500", "110613.365000", "110615.372500", "110617.380000", "110619.387500", "110621.397500", "110623.405000", "110625.412500", "110627.420000", "110629.427500", "110631.437500", "110633.445000", "110635.452500", "110637.460000", "110639.467500", "110641.477500", "110643.485000", "110645.492500", "110647.500000", "110649.510000", "110651.517500", "110653.525000", "110655.532500", "110657.540000", "110659.550000", "110701.557500", "110703.565000", "110705.572500", "110707.580000", "110709.590000", "110711.597500", "110713.605000", "110715.612500", "110717.622500", "110719.630000", "110721.637500", "110723.645000", "110725.652500", "110727.662500", "110729.670000", "110731.677500", "110733.685000", "110735.692500", "110737.702500", "110739.710000", "110741.717500", "110743.725000", "110745.735000", "110747.742500", "110749.750000", "110751.757500", "110753.765000", "110755.775000", "110757.782500", "110759.790000", "110801.797500", "110803.805000", "110805.815000", "110807.822500", "110809.830000", "110811.837500", "110813.845000", "110815.855000", "110817.862500", "110819.870000", "110821.877500", "110823.887500", "110825.895000", "110827.902500", "110829.910000", "110831.917500", "110833.927500", "110835.935000", "110837.942500", "110839.950000", "110841.957500", "110843.967500", "110845.975000", "110847.982500", "110849.990000", "110852.000000", "110854.007500", "110856.015000", "110858.022500", "110900.030000", "110902.040000", "110904.047500", "110906.055000", "110908.062500", "110910.070000", "110912.080000", "110914.087500", "110916.095000", "110918.102500", "110920.112500", "110922.120000", "110924.127500", "110926.135000", "110928.142500", "110930.152500", "110932.160000", "110934.167500", "110936.175000", "110938.182500", "110940.192500", "110942.200000", "110944.207500", "110946.215000", "110948.222500", "110950.232500", "110952.240000", "110954.247500", "110956.255000", "110958.265000", "111000.272500", "111002.280000", "111004.287500", "111006.295000", "111008.305000", "111010.312500", "111012.320000", "111014.327500", "111016.335000", "111018.345000", "111020.352500", "111022.360000", "111024.367500", "111026.377500", "111028.385000", "111030.392500", "111032.400000", "111034.407500", "111036.417500", "111038.425000", "111040.432500", "111042.440000", "111044.447500", "111046.457500", "111048.465000", "111050.472500", "111052.480000", "111054.490000", "111056.497500", "111058.505000", "111100.512500", "111102.520000", "111104.530000", "111106.537500", "111108.545000", "111110.552500", "111112.560000", "111114.570000", "111116.577500", "111118.585000", "111120.592500", "111122.600000", "111124.610000", "111126.617500", "111128.625000", "111130.632500", "111132.642500", "111134.650000", "111136.657500", "111138.665000", "111140.672500", "111142.682500", "111144.690000", "111146.697500", "111148.705000", "111150.712500", "111152.722500", "111154.730000", "111156.737500", "111158.745000", "111200.755000", "111202.762500", "111204.770000", "111206.777500", "111208.785000", "111210.795000", "111212.802500", "111214.810000", "111216.817500", "111218.825000", "111220.835000", "111222.842500", "111224.850000", "111226.857500", "111228.867500", "111230.875000", "111232.882500", "111234.890000", "111236.897500"],
      "ContentTime": ["105824.500000", "105824.500000", "105824.500000", "105824.500000", "105824.500000", "105824.500000", "105824.500000", "105824.515000", "105824.515000", "105824.515000", "105824.515000", "105824.515000", "105824.515000", "105824.515000", "105824.531000", "105824.531000", "105824.531000", "105824.531000", "105824.531000", "105824.546000", "105824.546000", "105824.546000", "105824.546000", "105824.546000", "105904.484000", "105904.484000", "105904.484000", "105904.484000", "105904.500000", "105904.500000", "105904.500000", "105904.515000", "105904.515000", "105904.515000", "105904.515000", "105904.515000", "105904.515000", "105904.515000", "105904.515000", "105904.531000", "105904.531000", "105904.531000", "105904.531000", "105904.531000", "105944.484000", "105944.484000", "105944.500000", "105944.500000", "105944.500000", "105944.500000", "105944.500000", "105944.500000", "105944.500000", "105944.515000", "105944.515000", "105944.515000", "105944.515000", "105944.515000", "105944.515000", "105944.515000", "105944.531000", "105944.531000", "105944.531000", "105944.531000", "110024.484000", "110024.484000", "110024.484000", "110024.484000", "110024.500000", "110024.500000", "110024.500000", "110024.500000", "110024.500000", "110024.500000", "110024.500000", "110024.515000", "110024.515000", "110024.515000", "110024.515000", "110024.515000", "110024.515000", "110024.531000", "110024.531000", "110024.531000", "110104.484000", "110104.484000", "110104.484000", "110104.500000", "110104.500000", "110104.500000", "110104.500000", "110104.500000", "110104.500000", "110104.500000", "110104.515000", "110104.515000", "110104.515000", "110104.515000", "110104.515000", "110104.515000", "110104.515000", "110104.531000", "110104.531000", "110104.531000", "110144.484000", "110144.484000", "110144.484000", "110144.484000", "110144.500000", "110144.500000", "110144.500000", "110144.500000", "110144.500000", "110144.500000", "110144.500000", "110144.515000", "110144.515000", "110144.515000", "110144.515000", "110144.515000", "110144.515000", "110144.531000", "110144.531000", "110144.531000", "110224.484000", "110224.484000", "110224.484000", "110224.484000", "110224.500000", "110224.500000", "110224.500000", "110224.500000", "110224.500000", "110224.500000", "110224.515000", "110224.515000", "110224.515000", "110224.515000", "110224.515000", "110224.515000", "110224.515000", "110224.515000", "110224.531000", "110224.531000", "110304.484000", "110304.484000", "110304.484000", "110304.484000", "110304.500000", "110304.500000", "110304.500000", "110304.500000", "110304.500000", "110304.500000", "110304.515000", "110304.515000", "110304.515000", "110304.515000", "110304.515000", "110304.515000", "110304.515000", "110304.531000", "110304.531000", "110304.531000", "110344.484000", "110344.484000", "110344.484000", "110344.500000", "110344.515000", "110344.515000", "110344.515000", "110344.515000", "110344.515000", "110344.515000", "110344.515000", "110344.531000", "110344.531000", "110344.531000", "110344.531000", "110344.531000", "110344.546000", "110344.546000", "110344.546000", "110344.546000", "110424.484000", "110424.484000", "110424.484000", "110424.500000", "110424.500000", "110424.500000", "110424.500000", "110424.500000", "110424.500000", "110424.515000", "110424.515000", "110424.515000", "110424.515000", "110424.515000", "110424.515000", "110424.515000", "110424.531000", "110424.531000", "110424.531000", "110424.531000", "110504.484000", "110504.484000", "110504.484000", "110504.484000", "110504.500000", "110504.500000", "110504.500000", "110504.500000", "110504.500000", "110504.500000", "110504.500000", "110504.515000", "110504.515000", "110504.515000", "110504.515000", "110504.515000", "110504.515000", "110504.515000", "110504.515000", "110504.531000", "110544.484000", "110544.484000", "110544.484000", "110544.500000", "110544.500000", "110544.500000", "110544.500000", "110544.500000", "110544.500000", "110544.515000", "110544.515000", "110544.515000", "110544.515000", "110544.515000", "110544.515000", "110544.531000", "110544.531000", "110544.531000", "110544.531000", "110544.531000", "110624.484000", "110624.484000", "110624.500000", "110624.500000", "110624.500000", "110624.500000", "110624.500000", "110624.515000", "110624.515000", "110624.515000", "110624.515000", "110624.515000", "110624.515000", "110624.515000", "110624.531000", "110624.531000", "110624.531000", "110624.531000", "110624.531000", "110624.531000", "110704.484000", "110704.484000", "110704.500000", "110704.500000", "110704.500000", "110704.500000", "110704.500000", "110704.500000", "110704.500000", "110704.515000", "110704.515000", "110704.515000", "110704.515000", "110704.515000", "110704.515000", "110704.515000", "110704.531000", "110704.531000", "110704.531000", "110704.531000", "110744.484000", "110744.484000", "110744.500000", "110744.500000", "110744.500000", "110744.500000", "110744.500000", "110744.500000", "110744.500000", "110744.515000", "110744.515000", "110744.515000", "110744.515000", "110744.531000", "110744.531000", "110744.531000", "110744.531000", "110744.531000", "110744.531000", "110744.531000", "110804.484000", "110804.484000", "110804.500000", "110804.500000", "110804.500000", "110804.500000", "110804.500000", "110804.500000", "110804.500000", "110804.515000", "110844.484000", "110844.484000", "110844.500000", "110844.500000", "110844.500000", "110844.500000", "110844.500000", "110844.500000", "110844.500000", "110844.515000", "110844.515000", "110844.515000", "110844.515000", "110844.515000", "110844.515000", "110844.515000", "110844.515000", "110844.531000", "110844.531000", "110844.531000", "110924.484000", "110924.484000", "110924.500000", "110924.500000", "110924.500000", "110924.500000", "110924.500000", "110924.500000", "110924.500000", "110924.515000", "110924.515000", "110924.515000", "110924.515000", "110924.515000", "110924.515000", "110924.515000", "110924.515000", "110924.531000", "110924.531000", "110924.531000", "111004.484000", "111004.484000", "111004.500000", "111004.500000", "111004.500000", "111004.500000", "111004.500000", "111004.500000", "111004.515000", "111004.515000", "111004.515000", "111004.515000", "111004.515000", "111004.515000", "111004.515000", "111004.515000", "111004.531000", "111004.531000", "111004.531000", "111004.531000", "111044.484000", "111044.484000", "111044.500000", "111044.500000", "111044.500000", "111044.500000", "111044.500000", "111044.500000", "111044.500000", "111044.515000", "111044.515000", "111044.515000", "111044.515000", "111044.531000", "111044.531000", "111044.531000", "111044.531000", "111044.531000", "111044.531000", "111044.531000", "111124.500000", "111124.500000", "111124.500000", "111124.500000", "111124.515000", "111124.515000", "111124.515000", "111124.515000", "111124.515000", "111124.515000", "111124.515000", "111124.531000", "111124.531000", "111124.531000", "111124.546000", "111124.546000", "111124.546000", "111124.546000", "111124.546000", "111124.546000", "111204.484000", "111204.484000", "111204.500000", "111204.500000", "111204.500000", "111204.500000", "111204.500000", "111204.500000", "111204.500000", "111204.515000", "111204.515000", "111204.515000", "111204.515000", "111204.515000", "111204.515000", "111204.515000", "111204.531000", "111204.531000", "111204.531000", "111204.531000", "111235.125000", "111235.140000", "111235.140000", "111235.140000", "111235.140000", "111235.140000", "111235.156000", "111235.156000", "111235.156000", "111235.156000", "111235.156000", "111235.156000", "111235.171000", "111235.171000", "111235.171000", "111235.171000"],
