{
  "AcquisitionMatrixPE": 72,
  "AcquisitionNumber": 1,
  "AcquisitionTime": "11:00:35.027500",
  "BandwidthPerPixelPhaseEncode": 28.935,
  "BaseResolution": 72,
  "CoilString": "C:HEA;HEP",
  "ConversionSoftware": "dcm2niix",
  "ConversionSoftwareVersion": "v1.0.20190410  GCC6.3.0",
  "DerivedVendorReportedEchoSpacing": 0.000480003,
  "DeviceSerialNumber": "35149",
  "DwellTime": 2.9e-06,
  "EchoTime": 0.025,
  "EffectiveEchoSpacing": 0.000480003,
  "FlipAngle": 75,
  "ImageOrientationPatientDICOM": [0.999722, 0.0229456, 0.00535933, -0.0203217, 0.954724, -0.296798],
  "ImageType": [
    "ORIGINAL",
    "PRIMARY",
    "M",
    "ND",
    "MOSAIC"
],
  "ImagingFrequency": 123.255,
  "InPlanePhaseEncodingDirectionDICOM": "COL",
  "InstitutionAddress": "Street_StreetNo_Rehovot_91E162_District_IL_ZIP",
  "InstitutionName": "Weizmann",
  "InstitutionalDepartmentName": "Department",
  "MRAcquisitionType": "2D",
  "MagneticFieldStrength": 3,
  "Manufacturer": "Siemens",
  "ManufacturersModelName": "TrioTim",
  "Modality": "MR",
  "PartialFourier": 1,
  "PatientPosition": "HFS",
  "PercentPhaseFOV": 100,
  "PhaseEncodingDirection": "j-",
  "PhaseEncodingSteps": 72,
  "PhaseResolution": 1,
  "PixelBandwidth": 2395,
  "ProcedureStepDescription": "Weizmann_Sobel",
  "ProtocolName": "exp1_30_to_AC-PC",
  "PulseSequenceDetails": "%SiemensSeq%_ep2d_pace",
  "ReceiveCoilName": "HeadMatrix",
  "ReconMatrixPE": 72,
  "RepetitionTime": 2,
  "SAR": 0.17652,
  "ScanOptions": "FS",
  "ScanningSequence": "EP",
  "SequenceName": "_epfid2d1_72",
  "SequenceVariant": "SK",
  "SeriesDescription": "exp1_30_to_AC-PC",
  "SeriesNumber": 7,
  "ShimSetting": [2354, 9224, -5357, 670, 272, -1011, 622, 65],
  "SliceThickness": 3.7,
  "SliceTiming": [0.9925, 0, 1.0525, 0.0575, 1.11, 0.1175, 1.17, 0.175, 1.2275, 0.2325, 1.285, 0.2925, 1.345, 0.35, 1.4025, 0.41, 1.46, 0.4675, 1.52, 0.525, 1.5775, 0.585, 1.6375, 0.6425, 1.695, 0.7, 1.7525, 0.76, 1.8125, 0.8175, 1.87, 0.8775, 1.9275, 0.935],
  "SoftwareVersions": "syngo_MR_B17",
  "SpacingBetweenSlices": 3.7,
  "StationName": "MRC35149",
  "TaskName": "blank",
  "TotalReadoutTime": 0.0340802,
  "TxRefAmp": 289.994,
  "VendorReportedEchoSpacing": 0.00048,
  "dcmmeta_affine": [
    [-2.999166965484619, -0.060965150594711304, 0.04412950202822685, 106.9045639038086],
    [-0.06883679330348969, 2.8641719818115234, -1.0974451303482056, -65.34913635253906],
    [0.01607799157500267, 0.8903941512107849, 3.533223867416382, -45.012046813964844],
    [0.0, 0.0, 0.0, 1.0]
],
  "dcmmeta_reorient_transform": [
    [0.0, -1.0, 0.0, 71.0],
    [1.0, 0.0, 0.0, 0.0],
    [0.0, 0.0, 1.0, 0.0],
    [0.0, 0.0, 0.0, 1.0]
],
  "dcmmeta_shape": [72, 72, 34, 450],
  "dcmmeta_slice_dim": 2,
  "dcmmeta_version": 0.6,
  "global": {
    "const": {
      "AcquisitionMatrix": [72, 0, 0, 72],
      "AngioFlag": "N",
      "BitsAllocated": 16,
      "BitsStored": 12,
      "Columns": 432,
      "EchoNumbers": 1,
      "EchoTime": 25.0,
      "EchoTrainLength": 1,
      "FlipAngle": 75.0,
      "HighBit": 11,
      "ImageOrientationPatient": [0.99972235001625, 0.02294559764101, 0.0053593308245, -0.0203217164068, 0.95472401298605, -0.2967980573894],
      "ImagePositionPatient": [-631.45238133851, -665.94866607867, 175.58285225574],
      "ImageType": [
        "ORIGINAL",
        "PRIMARY",
        "M",
        "ND",
        "MOSAIC"
],
      "ImagedNucleus": "1H",
      "ImagingFrequency": 123.254561,
      "InPlanePhaseEncodingDirection": "COL",
      "MRAcquisitionType": "2D",
      "MagneticFieldStrength": 3.0,
      "Manufacturer": "SIEMENS",
      "ManufacturerModelName": "TrioTim",
      "Modality": "MR",
      "NumberOfAverages": 1.0,
      "NumberOfPhaseEncodingSteps": 72,
      "PercentPhaseFieldOfView": 100.0,
      "PercentSampling": 100.0,
      "PerformedProcedureStepStartTime": "103131.375000",
      "PhotometricInterpretation": "MONOCHROME2",
      "PixelBandwidth": 2395.0,
      "PixelRepresentation": 0,
      "PixelSpacing": [3.0, 3.0],
      "ProtocolName": "exp1_30_to_AC-PC",
      "RepetitionTime": 2000.0,
      "Rows": 432,
      "SAR": 0.17652005351665,
      "SamplesPerPixel": 1,
      "ScanOptions": "FS",
      "ScanningSequence": "EP",
      "SequenceName": "*epfid2d1_72",
      "SequenceVariant": "SK",
      "SeriesDescription": "exp1_30_to_AC-PC",
      "SeriesNumber": 7,
      "SeriesTime": "110056.734000",
      "SliceLocation": -22.325104576576,
      "SliceThickness": 3.7000000476837,
      "SmallestImagePixelValue": 0,
      "SoftwareVersions": "syngo MR B17",
      "SpacingBetweenSlices": 3.7000004687166,
      "SpecificCharacterSet": "ISO_IR 100",
      "StudyID": "1",
      "StudyTime": "103131.312000",
      "TransmitCoilName": "Body",
      "VariableFlipAngleFlag": "N",
      "WindowCenterWidthExplanation": "Algo1",
      "dBdt": 0.0},
    "slices": {}
  },
  "time": {
    "samples": {
      "AcquisitionNumber": [1, 2, 3, 4, 5, 6, 7, 8, 9, 10, 11, 12, 13, 14, 15, 16, 17, 18, 19, 20, 21, 22, 23, 24, 25, 26, 27, 28, 29, 30, 31, 32, 33, 34, 35, 36, 37, 38, 39, 40, 41, 42, 43, 44, 45, 46, 47, 48, 49, 50, 51, 52, 53, 54, 55, 56, 57, 58, 59, 60, 61, 62, 63, 64, 65, 66, 67, 68, 69, 70, 71, 72, 73, 74, 75, 76, 77, 78, 79, 80, 81, 82, 83, 84, 85, 86, 87, 88, 89, 90, 91, 92, 93, 94, 95, 96, 97, 98, 99, 100, 101, 102, 103, 104, 105, 106, 107, 108, 109, 110, 111, 112, 113, 114, 115, 116, 117, 118, 119, 120, 121, 122, 123, 124, 125, 126, 127, 128, 129, 130, 131, 132, 133, 134, 135, 136, 137, 138, 139, 140, 141, 142, 143, 144, 145, 146, 147, 148, 149, 150, 151, 152, 153, 154, 155, 156, 157, 158, 159, 160, 161, 162, 163, 164, 165, 166, 167, 168, 169, 170, 171, 172, 173, 174, 175, 176, 177, 178, 179, 180, 181, 182, 183, 184, 185, 186, 187, 188, 189, 190, 191, 192, 193, 194, 195, 196, 197, 198, 199, 200, 201, 202, 203, 204, 205, 206, 207, 208, 209, 210, 211, 212, 213, 214, 215, 216, 217, 218, 219, 220, 221, 222, 223, 224, 225, 226, 227, 228, 229, 230, 231, 232, 233, 234, 235, 236, 237, 238, 239, 240, 241, 242, 243, 244, 245, 246, 247, 248, 249, 250, 251, 252, 253, 254, 255, 256, 257, 258, 259, 260, 261, 262, 263, 264, 265, 266, 267, 268, 269, 270, 271, 272, 273, 274, 275, 276, 277, 278, 279, 280, 281, 282, 283, 284, 285, 286, 287, 288, 289, 290, 291, 292, 293, 294, 295, 296, 297, 298, 299, 300, 301, 302, 303, 304, 305, 306, 307, 308, 309, 310, 311, 312, 313, 314, 315, 316, 317, 318, 319, 320, 321, 322, 323, 324, 325, 326, 327, 328, 329, 330, 331, 332, 333, 334, 335, 336, 337, 338, 339, 340, 341, 342, 343, 344, 345, 346, 347, 348, 349, 350, 351, 352, 353, 354, 355, 356, 357, 358, 359, 360, 361, 362, 363, 364, 365, 366, 367, 368, 369, 370, 371, 372, 373, 374, 375, 376, 377, 378, 379, 380, 381, 382, 383, 384, 385, 386, 387, 388, 389, 390, 391, 392, 393, 394, 395, 396, 397, 398, 399, 400, 401, 402, 403, 404, 405, 406, 407, 408, 409, 410, 411, 412, 413, 414, 415, 416, 417, 418, 419, 420, 421, 422, 423, 424, 425, 426, 427, 428, 429, 430, 431, 432, 433, 434, 435, 436, 437, 438, 439, 440, 441, 442, 443, 444, 445, 446, 447, 448, 449, 450],
      "AcquisitionTime": ["110035.027500", "110037.037500", "110039.045000", "110041.052500", "110043.060000", "110045.067500", "110047.077500", "110049.085000", "110051.092500", "110053.100000", "110055.110000", "110057.117500", "110059.125000", "110101.132500", "110103.140000", "110105.150000", "110107.157500", "110109.165000", "110111.172500", "110113.180000", "110115.190000", "110117.197500", "110119.205000", "110121.212500", "110123.222500", "110125.230000", "110127.237500", "110129.245000", "110131.252500", "110133.262500", "110135.270000", "110137.277500", "110139.285000", "110141.292500", "110143.302500", "110145.310000", "110147.317500", "110149.325000", "110151.332500", "110153.342500", "110155.350000", "110157.357500", "110159.365000", "110201.375000", "110203.382500", "110205.390000", "110207.397500", "110209.405000", "110211.415000", "110213.422500", "110215.430000", "110217.437500", "110219.445000", "110221.455000", "110223.462500", "110225.470000", "110227.477500", "110229.487500", "110231.495000", "110233.502500", "110235.510000", "110237.517500", "110239.527500", "110241.535000", "110243.542500", "110245.550000", "110247.557500", "110249.567500", "110251.575000", "110253.582500", "110255.590000", "110257.600000", "110259.607500", "110301.615000", "110303.622500", "110305.630000", "110307.640000", "110309.647500", "110311.655000", "110313.662500", "110315.670000", "110317.680000", "110319.687500", "110321.695000", "110323.702500", "110325.710000", "110327.720000", "110329.727500", "110331.735000", "110333.742500", "110335.752500", "110337.760000", "110339.767500", "110341.775000", "110343.782500", "110345.792500", "110347.800000", "110349.807500", "110351.815000", "110353.822500", "110355.832500", "110357.840000", "110359.847500", "110401.855000", "110403.865000", "110405.872500", "110407.880000", "110409.887500", "110411.895000", "110413.905000", "110415.912500", "110417.920000", "110419.927500", "110421.935000", "110423.945000", "110425.952500", "110427.960000", "110429.967500", "110431.977500", "110433.985000", "110435.992500", "110438.000000", "110440.007500", "110442.017500", "110444.025000", "110446.032500", "110448.040000", "110450.047500", "110452.057500", "110454.065000", "110456.072500", "110458.080000", "110500.087500", "110502.097500", "110504.105000", "110506.112500", "110508.120000", "110510.130000", "110512.137500", "110514.145000", "110516.152500", "110518.160000", "110520.170000", "110522.177500", "110524.185000", "110526.192500", "110528.200000", "110530.210000", "110532.217500", "110534.225000", "110536.232500", "110538.242500", "110540.250000", "110542.257500", "110544.265000", "110546.272500", "110548.282500", "110550.290000", "110552.297500", "110554.305000", "110556.312500", "110558.322500", "110600.330000", "110602.337500", "110604.345000", "110606.355000", "110608.362500", "110610.370000", "110612.377500", "110614.385000", "110616.395000", "110618.402500", "110620.410000", "110622.417500", "110624.425000", "110626.435000", "110628.442500", "110630.450000", "110632.457500", "110634.465000", "110636.475000", "110638.482500", "110640.490000", "110642.497500", "110644.507500", "110646.515000", "110648.522500", "110650.530000", "110652.537500", "110654.547500", "110656.555000", "110658.562500", "110700.570000", "110702.577500", "110704.587500", "110706.595000", "110708.602500", "110710.610000", "110712.620000", "110714.627500", "110716.635000", "110718.642500", "110720.650000", "110722.660000", "110724.667500", "110726.675000", "110728.682500", "110730.690000", "110732.700000", "110734.707500", "110736.715000", "110738.722500", "110740.732500", "110742.740000", "110744.747500", "110746.755000", "110748.762500", "110750.772500", "110752.780000", "110754.787500", "110756.795000", "110758.802500", "110800.812500", "110802.820000", "110804.827500", "110806.835000", "110808.842500", "110810.852500", "110812.860000", "110814.867500", "110816.875000", "110818.885000", "110820.892500", "110822.900000", "110824.907500", "110826.915000", "110828.925000", "110830.932500", "110832.940000", "110834.947500", "110836.955000", "110838.965000", "110840.972500", "110842.980000", "110844.987500", "110846.997500", "110849.005000", "110851.012500", "110853.020000", "110855.027500", "110857.037500", "110859.045000", "110901.052500", "110903.060000", "110905.067500", "110907.077500", "110909.085000", "110911.092500", "110913.100000", "110915.110000", "110917.117500", "110919.125000", "110921.132500", "110923.140000", "110925.150000", "110927.157500", "110929.165000", "110931.172500", "110933.180000", "110935.190000", "110937.197500", "110939.205000", "110941.212500", "110943.222500", "110945.230000", "110947.237500", "110949.245000", "110951.252500", "110953.262500", "110955.270000", "110957.277500", "110959.285000", "111001.292500", "111003.302500", "111005.310000", "111007.317500", "111009.325000", "111011.332500", "111013.342500", "111015.350000", "111017.357500", "111019.365000", "111021.375000", "111023.382500", "111025.390000", "111027.397500", "111029.405000", "111031.415000", "111033.422500", "111035.430000", "111037.437500", "111039.445000", "111041.455000", "111043.462500", "111045.470000", "111047.477500", "111049.487500", "111051.495000", "111053.502500", "111055.510000", "111057.517500", "111059.527500", "111101.535000", "111103.542500", "111105.550000", "111107.557500", "111109.567500", "111111.575000", "111113.582500", "111115.590000", "111117.600000", "111119.607500", "111121.615000", "111123.622500", "111125.630000", "111127.640000", "111129.647500", "111131.655000", "111133.662500", "111135.670000", "111137.680000", "111139.687500", "111141.695000", "111143.702500", "111145.710000", "111147.720000", "111149.727500", "111151.735000", "111153.742500", "111155.752500", "111157.760000", "111159.767500", "111201.775000", "111203.782500", "111205.792500", "111207.800000", "111209.807500", "111211.815000", "111213.822500", "111215.832500", "111217.840000", "111219.847500", "111221.855000", "111223.865000", "111225.872500", "111227.880000", "111229.887500", "111231.895000", "111233.905000", "111235.912500", "111237.920000", "111239.927500", "111241.935000", "111243.945000", "111245.952500", "111247.960000", "111249.967500", "111251.977500", "111253.985000", "111255.992500", "111258.000000", "111300.007500", "111302.017500", "111304.025000", "111306.032500", "111308.040000", "111310.047500", "111312.057500", "111314.065000", "111316.072500", "111318.080000", "111320.087500", "111322.097500", "111324.105000", "111326.112500", "111328.120000", "111330.130000", "111332.137500", "111334.145000", "111336.152500", "111338.160000", "111340.170000", "111342.177500", "111344.185000", "111346.192500", "111348.200000", "111350.210000", "111352.217500", "111354.225000", "111356.232500", "111358.242500", "111400.250000", "111402.257500", "111404.265000", "111406.272500", "111408.282500", "111410.290000", "111412.297500", "111414.305000", "111416.312500", "111418.322500", "111420.330000", "111422.337500", "111424.345000", "111426.355000", "111428.362500", "111430.370000", "111432.377500", "111434.385000", "111436.395000", "111438.402500", "111440.410000", "111442.417500", "111444.425000", "111446.435000", "111448.442500", "111450.450000", "111452.457500", "111454.465000", "111456.475000", "111458.482500", "111500.490000", "111502.497500", "111504.507500", "111506.515000", "111508.522500", "111510.530000", "111512.537500", "111514.547500", "111516.555000", "111518.562500", "111520.570000", "111522.577500", "111524.587500", "111526.595000", "111528.602500", "111530.610000", "111532.620000", "111534.627500", "111536.635000"],
      "ContentTime": ["110056.734000", "110056.750000", "110056.750000", "110056.750000", "110056.750000", "110056.750000", "110056.750000", "110056.750000", "110056.765000", "110056.765000", "110136.718000", "110136.718000", "110136.718000", "110136.734000", "110136.734000", "110136.734000", "110136.734000", "110136.750000", "110136.750000", "110136.750000", "110136.750000", "110136.750000", "110136.765000", "110136.765000", "110136.765000", "110136.781000", "110136.781000", "110136.781000", "110136.796000", "110136.812000", "110216.718000", "110216.718000", "110216.718000", "110216.718000", "110216.734000", "110216.734000", "110216.734000", "110216.734000", "110216.734000", "110216.734000", "110216.734000", "110216.750000", "110216.750000", "110216.750000", "110216.750000", "110216.765000", "110216.765000", "110216.765000", "110216.765000", "110216.765000", "110256.718000", "110256.718000", "110256.718000", "110256.734000", "110256.734000", "110256.734000", "110256.734000", "110256.734000", "110256.750000", "110256.750000", "110256.765000", "110256.765000", "110256.812000", "110256.812000", "110256.812000", "110256.828000", "110256.828000", "110256.828000", "110256.828000", "110256.828000", "110336.718000", "110336.718000", "110336.718000", "110336.718000", "110336.734000", "110336.734000", "110336.734000", "110336.734000", "110336.734000", "110336.750000", "110336.750000", "110336.750000", "110336.750000", "110336.750000", "110336.750000", "110336.765000", "110336.765000", "110336.765000", "110336.765000", "110336.765000", "110416.718000", "110416.718000", "110416.734000", "110416.734000", "110416.734000", "110416.734000", "110416.734000", "110416.734000", "110416.750000", "110416.750000", "110416.750000", "110416.750000", "110416.750000", "110416.750000", "110416.765000", "110416.765000", "110416.765000", "110416.765000", "110416.765000", "110416.765000", "110456.718000", "110456.734000", "110456.734000", "110456.734000", "110456.734000", "110456.734000", "110456.750000", "110456.750000", "110456.750000", "110456.750000", "110456.750000", "110456.765000", "110456.765000", "110456.765000", "110456.765000", "110456.781000", "110456.781000", "110456.781000", "110456.781000", "110456.781000", "110536.718000", "110536.718000", "110536.718000", "110536.718000", "110536.734000", "110536.734000", "110536.734000", "110536.750000", "110536.750000", "110536.765000", "110536.765000", "110536.765000", "110536.765000", "110536.765000", "110536.765000", "110536.781000", "110536.781000", "110536.781000", "110536.781000", "110536.781000", "110616.718000", "110616.718000", "110616.718000", "110616.718000", "110616.734000", "110616.734000", "110616.734000", "110616.734000", "110616.734000", "110616.734000", "110616.750000", "110616.750000", "110616.750000", "110616.750000", "110616.750000", "110616.750000", "110616.750000", "110616.765000", "110616.765000", "110616.765000", "110656.718000", "110656.718000", "110656.718000", "110656.718000", "110656.734000", "110656.734000", "110656.734000", "110656.734000", "110656.734000", "110656.734000", "110656.750000", "110656.750000", "110656.750000", "110656.750000", "110656.750000", "110656.750000", "110656.750000", "110656.765000", "110656.765000", "110656.765000", "110736.718000", "110736.718000", "110736.718000", "110736.718000", "110736.734000", "110736.734000", "110736.734000", "110736.734000", "110736.734000", "110736.734000", "110736.750000", "110736.750000", "110736.750000", "110736.750000", "110736.750000", "110736.750000", "110736.750000", "110736.765000", "110736.765000", "110736.781000", "110816.718000", "110816.718000", "110816.734000", "110816.734000", "110816.734000", "110816.734000", "110816.734000", "110816.734000", "110816.750000", "110816.750000", "110816.750000", "110816.750000", "110816.750000", "110816.750000", "110816.750000", "110816.765000", "110816.765000", "110816.765000", "110816.765000", "110816.765000", "110856.718000", "110856.718000", "110856.718000", "110856.734000", "110856.734000", "110856.734000", "110856.734000", "110856.734000", "110856.750000", "110856.750000", "110856.750000", "110856.765000", "110856.765000", "110856.765000", "110856.765000", "110856.765000", "110856.765000", "110856.781000", "110856.781000", "110856.796000", "110936.718000", "110936.718000", "110936.718000", "110936.734000", "110936.734000", "110936.734000", "110936.734000", "110936.734000", "110936.734000", "110936.734000", "110936.750000", "110936.750000", "110936.750000", "110936.750000", "110936.750000", "110936.765000", "110936.765000", "110936.765000", "110936.765000", "110936.765000", "111016.718000", "111016.734000", "111016.734000", "111016.734000", "111016.734000", "111016.734000", "111016.734000", "111016.750000", "111016.750000", "111016.750000", "111016.765000", "111016.765000", "111016.765000", "111016.765000", "111016.765000", "111016.765000", "111016.765000", "111016.781000", "111016.781000", "111016.781000", "111056.718000", "111056.718000", "111056.718000", "111056.734000", "111056.734000", "111056.734000", "111056.734000", "111056.734000", "111056.734000", "111056.734000", "111056.750000", "111056.750000", "111056.750000", "111056.750000", "111056.765000", "111056.765000", "111056.765000", "111056.765000", "111056.765000", "111056.765000", "111136.718000", "111136.718000", "111136.718000", "111136.734000", "111136.734000", "111136.734000", "111136.734000", "111136.734000", "111136.750000", "111136.750000", "111136.750000", "111136.750000", "111136.750000", "111136.750000", "111136.765000", "111136.765000", "111136.765000", "111136.765000", "111136.781000", "111136.796000", "111216.718000", "111216.718000", "111216.718000", "111216.734000", "111216.734000", "111216.734000", "111216.734000", "111216.734000", "111216.734000", "111216.734000", "111216.750000", "111216.750000", "111216.750000", "111216.765000", "111216.765000", "111216.765000", "111216.765000", "111216.765000", "111216.765000", "111216.765000", "111256.718000", "111256.718000", "111256.734000", "111256.734000", "111256.734000", "111256.734000", "111256.734000", "111256.734000", "111256.734000", "111256.750000", "111256.750000", "111256.750000", "111256.750000", "111256.750000", "111256.750000", "111256.765000", "111256.765000", "111256.765000", "111256.765000", "111256.765000", "111336.718000", "111336.718000", "111336.718000", "111336.718000", "111336.734000", "111336.734000", "111336.734000", "111336.734000", "111336.734000", "111336.734000", "111336.734000", "111336.750000", "111336.750000", "111336.750000", "111336.750000", "111336.750000", "111336.750000", "111336.765000", "111336.765000", "111336.765000", "111416.718000", "111416.718000", "111416.734000", "111416.734000", "111416.734000", "111416.734000", "111416.734000", "111416.734000", "111416.750000", "111416.750000", "111416.750000", "111416.750000", "111416.750000", "111416.750000", "111416.750000", "111416.765000", "111416.765000", "111416.765000", "111416.765000", "111416.765000", "111456.718000", "111456.718000", "111456.718000", "111456.718000", "111456.734000", "111456.734000", "111456.734000", "111456.734000", "111456.734000", "111456.734000", "111456.734000", "111456.750000", "111456.750000", "111456.750000", "111456.750000", "111456.765000", "111456.765000", "111456.765000", "111456.765000", "111456.765000", "111534.781000", "111534.796000", "111534.796000", "111534.796000", "111534.796000", "111534.796000", "111534.796000", "111534.812000", "111534.812000", "111534.812000", "111534.812000", "111534.812000", "111534.828000", "111534.843000", "111534.843000", "111534.843000", "111534.843000", "111534.843000", "111534.859000", "111534.859000"],
