{
  "AcquisitionMatrixPE": 72,
  "AcquisitionNumber": 1,
  "AcquisitionTime": "10:59:10.760000",
  "BandwidthPerPixelPhaseEncode": 28.935,
  "BaseResolution": 72,
  "CoilString": "C:HEA;HEP",
  "ConversionSoftware": "dcm2niix",
  "ConversionSoftwareVersion": "v1.0.20190410  GCC6.3.0",
  "DerivedVendorReportedEchoSpacing": 0.000480003,
  "DeviceSerialNumber": "35149",
  "DwellTime": 2.9e-06,
  "EchoTime": 0.025,
  "EffectiveEchoSpacing": 0.000480003,
  "FlipAngle": 75,
  "ImageOrientationPatientDICOM": [0.999608, 0.0266254, -0.00864208, -0.0279444, 0.930985, -0.363987],
  "ImageType": [
    "ORIGINAL",
    "PRIMARY",
    "M",
    "ND",
    "MOSAIC"
],
  "ImagingFrequency": 123.254,
  "InPlanePhaseEncodingDirectionDICOM": "COL",
  "InstitutionAddress": "Street_StreetNo_Rehovot_91E162_District_IL_ZIP",
  "InstitutionName": "Weizmann",
  "InstitutionalDepartmentName": "Department",
  "MRAcquisitionType": "2D",
  "MagneticFieldStrength": 3,
  "Manufacturer": "Siemens",
  "ManufacturersModelName": "TrioTim",
  "Modality": "MR",
  "PartialFourier": 1,
  "PatientPosition": "HFS",
  "PercentPhaseFOV": 100,
  "PhaseEncodingDirection": "j-",
  "PhaseEncodingSteps": 72,
  "PhaseResolution": 1,
  "PixelBandwidth": 2395,
  "ProcedureStepDescription": "Weizmann_Sobel",
  "ProtocolName": "exp1_30_to_AC-PC",
  "PulseSequenceDetails": "%SiemensSeq%_ep2d_pace",
  "ReceiveCoilName": "HeadMatrix",
  "ReconMatrixPE": 72,
  "RepetitionTime": 2,
  "SAR": 0.137816,
  "ScanOptions": "FS",
  "ScanningSequence": "EP",
  "SequenceName": "_epfid2d1_72",
  "SequenceVariant": "SK",
  "SeriesDescription": "exp1_30_to_AC-PC",
  "SeriesNumber": 5,
  "ShimSetting": [2334, 9188, -5518, 372, 264, -1175, 298, 144],
  "SliceThickness": 3.7,
  "SliceTiming": [0.995, 0, 1.0525, 0.06, 1.1125, 0.1175, 1.17, 0.1775, 1.2275, 0.235, 1.2875, 0.2925, 1.345, 0.3525, 1.405, 0.41, 1.4625, 0.47, 1.52, 0.5275, 1.58, 0.585, 1.6375, 0.645, 1.6975, 0.7025, 1.755, 0.76, 1.8125, 0.82, 1.8725, 0.8775, 1.93, 0.9375],
  "SoftwareVersions": "syngo_MR_B17",
  "SpacingBetweenSlices": 3.7,
  "StationName": "MRC35149",
  "TaskName": "blank",
  "TotalReadoutTime": 0.0340802,
  "TxRefAmp": 265.224,
  "VendorReportedEchoSpacing": 0.00048,
  "dcmmeta_affine": [
    [-2.99882435798645, -0.08383326232433319, 0.006088916677981615, 110.76532745361328],
    [-0.07987627387046814, 2.792954444885254, -1.3471165895462036, -65.3199691772461],
    [-0.025926247239112854, 1.0919601917266846, 3.446047067642212, -68.5629653930664],
    [0.0, 0.0, 0.0, 1.0]
],
  "dcmmeta_reorient_transform": [
    [0.0, -1.0, 0.0, 71.0],
    [1.0, 0.0, 0.0, 0.0],
    [0.0, 0.0, 1.0, 0.0],
    [0.0, 0.0, 0.0, 1.0]
],
  "dcmmeta_shape": [72, 72, 34, 450],
  "dcmmeta_slice_dim": 2,
  "dcmmeta_version": 0.6,
  "global": {
    "const": {
      "AcquisitionMatrix": [72, 0, 0, 72],
      "AngioFlag": "N",
      "BitsAllocated": 16,
      "BitsStored": 12,
      "Columns": 432,
      "EchoNumbers": 1,
      "EchoTime": 25.0,
      "EchoTrainLength": 1,
      "FlipAngle": 75.0,
      "HighBit": 11,
      "ImageOrientationPatient": [0.9996081237753, 0.02662542563041, -0.0086420826436, -0.0279444217707, 0.93098484556176, -0.3639867121562],
      "ImagePositionPatient": [-629.51156409164, -650.08934948558, 210.18575097669],
      "ImageType": [
        "ORIGINAL",
        "PRIMARY",
        "M",
        "ND",
        "MOSAIC"
],
      "ImagedNucleus": "1H",
      "ImagingFrequency": 123.254483,
      "InPlanePhaseEncodingDirection": "COL",
      "MRAcquisitionType": "2D",
      "MagneticFieldStrength": 3.0,
      "Manufacturer": "SIEMENS",
      "ManufacturerModelName": "TrioTim",
      "Modality": "MR",
      "NumberOfAverages": 1.0,
      "NumberOfPhaseEncodingSteps": 72,
      "PercentPhaseFieldOfView": 100.0,
      "PercentSampling": 100.0,
      "PerformedProcedureStepStartTime": "103424.375000",
      "PhotometricInterpretation": "MONOCHROME2",
      "PixelBandwidth": 2395.0,
      "PixelRepresentation": 0,
      "PixelSpacing": [3.0, 3.0],
      "ProtocolName": "exp1_30_to_AC-PC",
      "RepetitionTime": 2000.0,
      "Rows": 432,
      "SAR": 0.13781632853927,
      "SamplesPerPixel": 1,
      "ScanOptions": "FS",
      "ScanningSequence": "EP",
      "SequenceName": "*epfid2d1_72",
      "SequenceVariant": "SK",
      "SeriesDescription": "exp1_30_to_AC-PC",
      "SeriesNumber": 5,
      "SeriesTime": "105953.562000",
      "SliceLocation": -39.892743615361,
      "SliceThickness": 3.7000000476837,
      "SmallestImagePixelValue": 0,
      "SoftwareVersions": "syngo MR B17",
      "SpacingBetweenSlices": 3.6999999828869,
      "SpecificCharacterSet": "ISO_IR 100",
      "StudyID": "1",
      "StudyTime": "103424.312000",
      "TransmitCoilName": "Body",
      "VariableFlipAngleFlag": "N",
      "WindowCenterWidthExplanation": "Algo1",
      "dBdt": 0.0},
    "slices": {}
  },
  "time": {
    "samples": {
      "AcquisitionNumber": [1, 2, 3, 4, 5, 6, 7, 8, 9, 10, 11, 12, 13, 14, 15, 16, 17, 18, 19, 20, 21, 22, 23, 24, 25, 26, 27, 28, 29, 30, 31, 32, 33, 34, 35, 36, 37, 38, 39, 40, 41, 42, 43, 44, 45, 46, 47, 48, 49, 50, 51, 52, 53, 54, 55, 56, 57, 58, 59, 60, 61, 62, 63, 64, 65, 66, 67, 68, 69, 70, 71, 72, 73, 74, 75, 76, 77, 78, 79, 80, 81, 82, 83, 84, 85, 86, 87, 88, 89, 90, 91, 92, 93, 94, 95, 96, 97, 98, 99, 100, 101, 102, 103, 104, 105, 106, 107, 108, 109, 110, 111, 112, 113, 114, 115, 116, 117, 118, 119, 120, 121, 122, 123, 124, 125, 126, 127, 128, 129, 130, 131, 132, 133, 134, 135, 136, 137, 138, 139, 140, 141, 142, 143, 144, 145, 146, 147, 148, 149, 150, 151, 152, 153, 154, 155, 156, 157, 158, 159, 160, 161, 162, 163, 164, 165, 166, 167, 168, 169, 170, 171, 172, 173, 174, 175, 176, 177, 178, 179, 180, 181, 182, 183, 184, 185, 186, 187, 188, 189, 190, 191, 192, 193, 194, 195, 196, 197, 198, 199, 200, 201, 202, 203, 204, 205, 206, 207, 208, 209, 210, 211, 212, 213, 214, 215, 216, 217, 218, 219, 220, 221, 222, 223, 224, 225, 226, 227, 228, 229, 230, 231, 232, 233, 234, 235, 236, 237, 238, 239, 240, 241, 242, 243, 244, 245, 246, 247, 248, 249, 250, 251, 252, 253, 254, 255, 256, 257, 258, 259, 260, 261, 262, 263, 264, 265, 266, 267, 268, 269, 270, 271, 272, 273, 274, 275, 276, 277, 278, 279, 280, 281, 282, 283, 284, 285, 286, 287, 288, 289, 290, 291, 292, 293, 294, 295, 296, 297, 298, 299, 300, 301, 302, 303, 304, 305, 306, 307, 308, 309, 310, 311, 312, 313, 314, 315, 316, 317, 318, 319, 320, 321, 322, 323, 324, 325, 326, 327, 328, 329, 330, 331, 332, 333, 334, 335, 336, 337, 338, 339, 340, 341, 342, 343, 344, 345, 346, 347, 348, 349, 350, 351, 352, 353, 354, 355, 356, 357, 358, 359, 360, 361, 362, 363, 364, 365, 366, 367, 368, 369, 370, 371, 372, 373, 374, 375, 376, 377, 378, 379, 380, 381, 382, 383, 384, 385, 386, 387, 388, 389, 390, 391, 392, 393, 394, 395, 396, 397, 398, 399, 400, 401, 402, 403, 404, 405, 406, 407, 408, 409, 410, 411, 412, 413, 414, 415, 416, 417, 418, 419, 420, 421, 422, 423, 424, 425, 426, 427, 428, 429, 430, 431, 432, 433, 434, 435, 436, 437, 438, 439, 440, 441, 442, 443, 444, 445, 446, 447, 448, 449, 450],
      "AcquisitionTime": ["105910.760000", "105912.767500", "105914.775000", "105916.785000", "105918.792500", "105920.800000", "105922.807500", "105924.815000", "105926.825000", "105928.832500", "105930.840000", "105932.847500", "105934.855000", "105936.865000", "105938.872500", "105940.880000", "105942.887500", "105944.897500", "105946.905000", "105948.912500", "105950.920000", "105952.927500", "105954.937500", "105956.945000", "105958.952500", "110000.960000", "110002.967500", "110004.977500", "110006.985000", "110008.992500", "110011.000000", "110013.010000", "110015.017500", "110017.025000", "110019.032500", "110021.040000", "110023.050000", "110025.057500", "110027.065000", "110029.072500", "110031.080000", "110033.090000", "110035.097500", "110037.105000", "110039.112500", "110041.122500", "110043.130000", "110045.137500", "110047.145000", "110049.152500", "110051.162500", "110053.170000", "110055.177500", "110057.185000", "110059.192500", "110101.202500", "110103.210000", "110105.217500", "110107.225000", "110109.235000", "110111.242500", "110113.250000", "110115.257500", "110117.265000", "110119.275000", "110121.282500", "110123.290000", "110125.297500", "110127.305000", "110129.315000", "110131.322500", "110133.330000", "110135.337500", "110137.345000", "110139.355000", "110141.362500", "110143.370000", "110145.377500", "110147.387500", "110149.395000", "110151.402500", "110153.410000", "110155.417500", "110157.427500", "110159.435000", "110201.442500", "110203.450000", "110205.457500", "110207.467500", "110209.475000", "110211.482500", "110213.490000", "110215.500000", "110217.507500", "110219.515000", "110221.522500", "110223.530000", "110225.540000", "110227.547500", "110229.555000", "110231.562500", "110233.570000", "110235.580000", "110237.587500", "110239.595000", "110241.602500", "110243.612500", "110245.620000", "110247.627500", "110249.635000", "110251.642500", "110253.652500", "110255.660000", "110257.667500", "110259.675000", "110301.682500", "110303.692500", "110305.700000", "110307.707500", "110309.715000", "110311.722500", "110313.732500", "110315.740000", "110317.747500", "110319.755000", "110321.765000", "110323.772500", "110325.780000", "110327.787500", "110329.795000", "110331.805000", "110333.812500", "110335.820000", "110337.827500", "110339.835000", "110341.845000", "110343.852500", "110345.860000", "110347.867500", "110349.877500", "110351.885000", "110353.892500", "110355.900000", "110357.907500", "110359.917500", "110401.925000", "110403.932500", "110405.940000", "110407.947500", "110409.957500", "110411.965000", "110413.972500", "110415.980000", "110417.990000", "110419.997500", "110422.005000", "110424.012500", "110426.020000", "110428.030000", "110430.037500", "110432.045000", "110434.052500", "110436.060000", "110438.070000", "110440.077500", "110442.085000", "110444.092500", "110446.100000", "110448.110000", "110450.117500", "110452.125000", "110454.132500", "110456.142500", "110458.150000", "110500.157500", "110502.165000", "110504.172500", "110506.182500", "110508.190000", "110510.197500", "110512.205000", "110514.212500", "110516.222500", "110518.230000", "110520.237500", "110522.245000", "110524.255000", "110526.262500", "110528.270000", "110530.277500", "110532.285000", "110534.295000", "110536.302500", "110538.310000", "110540.317500", "110542.325000", "110544.335000", "110546.342500", "110548.350000", "110550.357500", "110552.367500", "110554.375000", "110556.382500", "110558.390000", "110600.397500", "110602.407500", "110604.415000", "110606.422500", "110608.430000", "110610.437500", "110612.447500", "110614.455000", "110616.462500", "110618.470000", "110620.477500", "110622.487500", "110624.495000", "110626.502500", "110628.510000", "110630.520000", "110632.527500", "110634.535000", "110636.542500", "110638.550000", "110640.560000", "110642.567500", "110644.575000", "110646.582500", "110648.590000", "110650.600000", "110652.607500", "110654.615000", "110656.622500", "110658.632500", "110700.640000", "110702.647500", "110704.655000", "110706.662500", "110708.672500", "110710.680000", "110712.687500", "110714.695000", "110716.702500", "110718.712500", "110720.720000", "110722.727500", "110724.735000", "110726.745000", "110728.752500", "110730.760000", "110732.767500", "110734.775000", "110736.785000", "110738.792500", "110740.800000", "110742.807500", "110744.815000", "110746.825000", "110748.832500", "110750.840000", "110752.847500", "110754.855000", "110756.865000", "110758.872500", "110800.880000", "110802.887500", "110804.897500", "110806.905000", "110808.912500", "110810.920000", "110812.927500", "110814.937500", "110816.945000", "110818.952500", "110820.960000", "110822.967500", "110824.977500", "110826.985000", "110828.992500", "110831.000000", "110833.010000", "110835.017500", "110837.025000", "110839.032500", "110841.040000", "110843.050000", "110845.057500", "110847.065000", "110849.072500", "110851.080000", "110853.090000", "110855.097500", "110857.105000", "110859.112500", "110901.122500", "110903.130000", "110905.137500", "110907.145000", "110909.152500", "110911.162500", "110913.170000", "110915.177500", "110917.185000", "110919.192500", "110921.202500", "110923.210000", "110925.217500", "110927.225000", "110929.235000", "110931.242500", "110933.250000", "110935.257500", "110937.265000", "110939.275000", "110941.282500", "110943.290000", "110945.297500", "110947.305000", "110949.315000", "110951.322500", "110953.330000", "110955.337500", "110957.345000", "110959.355000", "111001.362500", "111003.370000", "111005.377500", "111007.387500", "111009.395000", "111011.402500", "111013.410000", "111015.417500", "111017.427500", "111019.435000", "111021.442500", "111023.450000", "111025.457500", "111027.467500", "111029.475000", "111031.482500", "111033.490000", "111035.500000", "111037.507500", "111039.515000", "111041.522500", "111043.530000", "111045.540000", "111047.547500", "111049.555000", "111051.562500", "111053.570000", "111055.580000", "111057.587500", "111059.595000", "111101.602500", "111103.612500", "111105.620000", "111107.627500", "111109.635000", "111111.642500", "111113.652500", "111115.660000", "111117.667500", "111119.675000", "111121.682500", "111123.692500", "111125.700000", "111127.707500", "111129.715000", "111131.722500", "111133.732500", "111135.740000", "111137.747500", "111139.755000", "111141.765000", "111143.772500", "111145.780000", "111147.787500", "111149.795000", "111151.805000", "111153.812500", "111155.820000", "111157.827500", "111159.835000", "111201.845000", "111203.852500", "111205.860000", "111207.867500", "111209.877500", "111211.885000", "111213.892500", "111215.900000", "111217.907500", "111219.917500", "111221.925000", "111223.932500", "111225.940000", "111227.947500", "111229.957500", "111231.965000", "111233.972500", "111235.980000", "111237.990000", "111239.997500", "111242.005000", "111244.012500", "111246.020000", "111248.030000", "111250.037500", "111252.045000", "111254.052500", "111256.060000", "111258.070000", "111300.077500", "111302.085000", "111304.092500", "111306.100000", "111308.110000", "111310.117500", "111312.125000", "111314.132500", "111316.142500", "111318.150000", "111320.157500", "111322.165000", "111324.172500", "111326.182500", "111328.190000", "111330.197500", "111332.205000", "111334.212500", "111336.222500", "111338.230000", "111340.237500", "111342.245000", "111344.255000", "111346.262500", "111348.270000", "111350.277500", "111352.285000", "111354.295000", "111356.302500", "111358.310000", "111400.317500", "111402.325000", "111404.335000", "111406.342500", "111408.350000", "111410.357500", "111412.367500"],
      "ContentTime": ["105953.578000", "105953.578000", "105953.578000", "105953.578000", "105953.593000", "105953.593000", "105953.593000", "105953.593000", "105953.593000", "105953.593000", "105953.593000", "105953.609000", "105953.609000", "105953.609000", "105953.609000", "105953.609000", "105953.609000", "105953.609000", "105953.609000", "105953.625000", "105953.625000", "110033.562000", "110033.562000", "110033.562000", "110033.562000", "110033.578000", "110033.578000", "110033.578000", "110033.578000", "110033.578000", "110033.578000", "110033.578000", "110033.593000", "110033.593000", "110033.593000", "110033.593000", "110033.593000", "110033.593000", "110033.593000", "110033.609000", "110033.609000", "110113.562000", "110113.562000", "110113.562000", "110113.562000", "110113.578000", "110113.578000", "110113.578000", "110113.578000", "110113.593000", "110113.593000", "110113.593000", "110113.593000", "110113.593000", "110113.609000", "110113.609000", "110113.609000", "110113.609000", "110113.609000", "110113.609000", "110113.609000", "110153.562000", "110153.562000", "110153.562000", "110153.562000", "110153.578000", "110153.578000", "110153.578000", "110153.578000", "110153.578000", "110153.578000", "110153.578000", "110153.593000", "110153.593000", "110153.593000", "110153.593000", "110153.609000", "110153.609000", "110153.609000", "110153.609000", "110153.609000", "110233.562000", "110233.562000", "110233.562000", "110233.562000", "110233.578000", "110233.578000", "110233.578000", "110233.578000", "110233.578000", "110233.578000", "110233.578000", "110233.593000", "110233.593000", "110233.593000", "110233.593000", "110233.593000", "110233.593000", "110233.609000", "110233.609000", "110233.609000", "110313.562000", "110313.562000", "110313.562000", "110313.562000", "110313.578000", "110313.578000", "110313.578000", "110313.578000", "110313.578000", "110313.593000", "110313.593000", "110313.593000", "110313.593000", "110313.593000", "110313.593000", "110313.593000", "110313.609000", "110313.609000", "110313.609000", "110313.609000", "110353.562000", "110353.562000", "110353.562000", "110353.562000", "110353.578000", "110353.578000", "110353.578000", "110353.578000", "110353.578000", "110353.593000", "110353.593000", "110353.593000", "110353.593000", "110353.593000", "110353.593000", "110353.609000", "110353.609000", "110353.609000", "110353.609000", "110353.609000", "110433.562000", "110433.562000", "110433.562000", "110433.562000", "110433.578000", "110433.578000", "110433.578000", "110433.578000", "110433.578000", "110433.578000", "110433.578000", "110433.593000", "110433.593000", "110433.593000", "110433.593000", "110433.593000", "110433.593000", "110433.593000", "110433.609000", "110433.609000", "110513.562000", "110513.562000", "110513.562000", "110513.578000", "110513.578000", "110513.578000", "110513.593000", "110513.593000", "110513.593000", "110513.593000", "110513.593000", "110513.593000", "110513.593000", "110513.609000", "110513.609000", "110513.609000", "110513.609000", "110513.609000", "110513.609000", "110513.609000", "110553.562000", "110553.562000", "110553.562000", "110553.562000", "110553.578000", "110553.578000", "110553.578000", "110553.578000", "110553.578000", "110553.578000", "110553.578000", "110553.593000", "110553.593000", "110553.593000", "110553.593000", "110553.593000", "110553.593000", "110553.593000", "110553.609000", "110553.609000", "110633.562000", "110633.562000", "110633.562000", "110633.562000", "110633.578000", "110633.578000", "110633.578000", "110633.578000", "110633.578000", "110633.578000", "110633.578000", "110633.593000", "110633.593000", "110633.593000", "110633.593000", "110633.593000", "110633.609000", "110633.609000", "110633.609000", "110633.609000", "110713.562000", "110713.562000", "110713.562000", "110713.562000", "110713.578000", "110713.578000", "110713.578000", "110713.578000", "110713.578000", "110713.578000", "110713.578000", "110713.593000", "110713.593000", "110713.593000", "110713.593000", "110713.593000", "110713.593000", "110713.593000", "110713.609000", "110713.609000", "110753.562000", "110753.562000", "110753.562000", "110753.562000", "110753.578000", "110753.578000", "110753.578000", "110753.578000", "110753.578000", "110753.578000", "110753.578000", "110753.593000", "110753.593000", "110753.593000", "110753.593000", "110753.593000", "110753.593000", "110753.593000", "110753.609000", "110753.609000", "110833.562000", "110833.578000", "110833.578000", "110833.578000", "110833.578000", "110833.578000", "110833.593000", "110833.593000", "110833.593000", "110833.593000", "110833.593000", "110833.593000", "110833.609000", "110833.609000", "110833.609000", "110833.609000", "110833.609000", "110833.609000", "110833.625000", "110833.625000", "110913.562000", "110913.562000", "110913.578000", "110913.578000", "110913.578000", "110913.578000", "110913.593000", "110913.593000", "110913.593000", "110913.593000", "110913.593000", "110913.593000", "110913.593000", "110913.609000", "110913.609000", "110913.609000", "110913.609000", "110913.609000", "110913.609000", "110913.609000", "110953.562000", "110953.562000", "110953.578000", "110953.578000", "110953.578000", "110953.578000", "110953.578000", "110953.578000", "110953.578000", "110953.593000", "110953.593000", "110953.593000", "110953.593000", "110953.593000", "110953.593000", "110953.593000", "110953.609000", "110953.609000", "110953.609000", "110953.609000", "111033.562000", "111033.562000", "111033.578000", "111033.578000", "111033.578000", "111033.578000", "111033.578000", "111033.578000", "111033.578000", "111033.593000", "111033.593000", "111033.593000", "111033.593000", "111033.593000", "111033.609000", "111033.609000", "111033.609000", "111033.609000", "111033.609000", "111033.609000", "111113.562000", "111113.562000", "111113.578000", "111113.578000", "111113.578000", "111113.578000", "111113.578000", "111113.578000", "111113.578000", "111113.593000", "111113.593000", "111113.593000", "111113.593000", "111113.593000", "111113.593000", "111113.593000", "111113.609000", "111113.609000", "111113.609000", "111113.609000", "111153.562000", "111153.562000", "111153.578000", "111153.578000", "111153.578000", "111153.578000", "111153.578000", "111153.578000", "111153.578000", "111153.593000", "111153.593000", "111153.593000", "111153.593000", "111153.593000", "111153.593000", "111153.593000", "111153.609000", "111153.609000", "111153.609000", "111153.609000", "111233.562000", "111233.562000", "111233.578000", "111233.578000", "111233.578000", "111233.578000", "111233.578000", "111233.578000", "111233.578000", "111233.593000", "111233.593000", "111233.593000", "111233.593000", "111233.593000", "111233.609000", "111233.609000", "111233.609000", "111233.609000", "111233.609000", "111233.609000", "111313.562000", "111313.562000", "111313.578000", "111313.578000", "111313.578000", "111313.578000", "111313.578000", "111313.578000", "111313.578000", "111313.593000", "111313.593000", "111313.593000", "111313.593000", "111313.593000", "111313.593000", "111313.593000", "111313.609000", "111313.609000", "111313.609000", "111313.625000", "111353.562000", "111353.562000", "111353.578000", "111353.578000", "111353.578000", "111353.578000", "111353.578000", "111353.578000", "111353.578000", "111353.593000", "111353.593000", "111353.593000", "111353.593000", "111353.593000", "111353.593000", "111353.609000", "111353.609000", "111353.609000", "111353.609000", "111353.609000", "111410.281000", "111410.281000", "111410.296000", "111410.296000", "111410.296000", "111410.296000", "111410.312000", "111410.312000", "111410.312000"],
