{
  "AcquisitionMatrixPE": 72,
  "AcquisitionNumber": 1,
  "AcquisitionTime": "09:53:42.860000",
  "BandwidthPerPixelPhaseEncode": 28.935,
  "BaseResolution": 72,
  "CoilString": "C:HEA;HEP",
  "ConversionSoftware": "dcm2niix",
  "ConversionSoftwareVersion": "v1.0.20190410  GCC6.3.0",
  "DerivedVendorReportedEchoSpacing": 0.000480003,
  "DeviceSerialNumber": "35149",
  "DwellTime": 2.9e-06,
  "EchoTime": 0.025,
  "EffectiveEchoSpacing": 0.000480003,
  "FlipAngle": 75,
  "ImageOrientationPatientDICOM": [0.999258, -0.0328364, 0.0201482, 0.0382229, 0.910405, -0.411949],
  "ImageType": [
    "ORIGINAL",
    "PRIMARY",
    "M",
    "ND",
    "MOSAIC"
],
  "ImagingFrequency": 123.255,
  "InPlanePhaseEncodingDirectionDICOM": "COL",
  "InstitutionAddress": "Street_StreetNo_Rehovot_91E162_District_IL_ZIP",
  "InstitutionName": "Weizmann",
  "InstitutionalDepartmentName": "Department",
  "MRAcquisitionType": "2D",
  "MagneticFieldStrength": 3,
  "Manufacturer": "Siemens",
  "ManufacturersModelName": "TrioTim",
  "Modality": "MR",
  "PartialFourier": 1,
  "PatientPosition": "HFS",
  "PercentPhaseFOV": 100,
  "PhaseEncodingDirection": "j-",
  "PhaseEncodingSteps": 72,
  "PhaseResolution": 1,
  "PixelBandwidth": 2395,
  "ProcedureStepDescription": "Weizmann_Sobel",
  "ProtocolName": "exp1_30_to_AC-PC",
  "PulseSequenceDetails": "%SiemensSeq%_ep2d_pace",
  "ReceiveCoilName": "HeadMatrix",
  "ReconMatrixPE": 72,
  "RepetitionTime": 2,
  "SAR": 0.158497,
  "ScanOptions": "FS",
  "ScanningSequence": "EP",
  "SequenceName": "_epfid2d1_72",
  "SequenceVariant": "SK",
  "SeriesDescription": "exp1_30_to_AC-PC",
  "SeriesNumber": 5,
  "ShimSetting": [2315, 9405, -5561, 712, 232, -778, -1154, 46],
  "SliceThickness": 3.7,
  "SliceTiming": [0.9925, 0, 1.0525, 0.0575, 1.11, 0.115, 1.1675, 0.175, 1.2275, 0.2325, 1.285, 0.2925, 1.3425, 0.35, 1.4025, 0.4075, 1.46, 0.4675, 1.52, 0.525, 1.5775, 0.5825, 1.635, 0.6425, 1.695, 0.7, 1.7525, 0.76, 1.81, 0.8175, 1.87, 0.875, 1.9275, 0.935],
  "SoftwareVersions": "syngo_MR_B17",
  "SpacingBetweenSlices": 3.7,
  "StationName": "MRC35149",
  "TaskName": "bodyodor",
  "TotalReadoutTime": 0.0340802,
  "TxRefAmp": 303.364,
  "VendorReportedEchoSpacing": 0.00048,
  "dcmmeta_affine": [
    [-2.9977729320526123, 0.11466856300830841, 0.017819516360759735, 111.24040222167969],
    [0.0985092967748642, 2.7312145233154297, -1.5259292125701904, -59.539024353027344],
    [0.060444604605436325, 1.235846996307373, 3.3706412315368652, -66.17208099365234],
    [0.0, 0.0, 0.0, 1.0]
],
  "dcmmeta_reorient_transform": [
    [0.0, -1.0, 0.0, 71.0],
    [1.0, 0.0, 0.0, 0.0],
    [0.0, 0.0, 1.0, 0.0],
    [0.0, 0.0, 0.0, 1.0]
],
  "dcmmeta_shape": [72, 72, 34, 460],
  "dcmmeta_slice_dim": 2,
  "dcmmeta_version": 0.6,
  "global": {
    "const": {
      "AcquisitionMatrix": [72, 0, 0, 72],
      "AngioFlag": "N",
      "BitsAllocated": 16,
      "BitsStored": 12,
      "Columns": 432,
      "EchoNumbers": 1,
      "EchoTime": 25.0,
      "EchoTrainLength": 1,
      "FlipAngle": 75.0,
      "HighBit": 11,
      "ImageOrientationPatient": [0.99925763379022, -0.0328364321534, 0.02014820179063, 0.03822285485083, 0.91040487106901, -0.4119490066754],
      "ImagePositionPatient": [-679.62133576919, -608.26417141535, 233.1454931901],
      "ImageType": [
        "ORIGINAL",
        "PRIMARY",
        "M",
        "ND",
        "MOSAIC"
],
      "ImagedNucleus": "1H",
      "ImagingFrequency": 123.254556,
      "InPlanePhaseEncodingDirection": "COL",
      "MRAcquisitionType": "2D",
      "MagneticFieldStrength": 3.0,
      "Manufacturer": "SIEMENS",
      "ManufacturerModelName": "TrioTim",
      "Modality": "MR",
      "NumberOfAverages": 1.0,
      "NumberOfPhaseEncodingSteps": 72,
      "PercentPhaseFieldOfView": 100.0,
      "PercentSampling": 100.0,
      "PerformedProcedureStepStartTime": "092008.359000",
      "PhotometricInterpretation": "MONOCHROME2",
      "PixelBandwidth": 2395.0,
      "PixelRepresentation": 0,
      "PixelSpacing": [3.0, 3.0],
      "ProtocolName": "exp1_30_to_AC-PC",
      "RepetitionTime": 2000.0,
      "Rows": 432,
      "SAR": 0.15849683601435,
      "SamplesPerPixel": 1,
      "ScanOptions": "FS",
      "ScanningSequence": "EP",
      "SequenceName": "*epfid2d1_72",
      "SequenceVariant": "SK",
      "SeriesDescription": "exp1_30_to_AC-PC",
      "SeriesNumber": 5,
      "SeriesTime": "095436.375000",
      "SliceLocation": -35.191284929386,
      "SliceThickness": 3.7000000476837,
      "SmallestImagePixelValue": 0,
      "SoftwareVersions": "syngo MR B17",
      "SpacingBetweenSlices": 3.699999937862,
      "SpecificCharacterSet": "ISO_IR 100",
      "StudyID": "1",
      "StudyTime": "092008.312000",
      "TransmitCoilName": "Body",
      "VariableFlipAngleFlag": "N",
      "WindowCenterWidthExplanation": "Algo1",
      "dBdt": 0.0},
    "slices": {}
  },
  "time": {
    "samples": {
      "AcquisitionNumber": [1, 2, 3, 4, 5, 6, 7, 8, 9, 10, 11, 12, 13, 14, 15, 16, 17, 18, 19, 20, 21, 22, 23, 24, 25, 26, 27, 28, 29, 30, 31, 32, 33, 34, 35, 36, 37, 38, 39, 40, 41, 42, 43, 44, 45, 46, 47, 48, 49, 50, 51, 52, 53, 54, 55, 56, 57, 58, 59, 60, 61, 62, 63, 64, 65, 66, 67, 68, 69, 70, 71, 72, 73, 74, 75, 76, 77, 78, 79, 80, 81, 82, 83, 84, 85, 86, 87, 88, 89, 90, 91, 92, 93, 94, 95, 96, 97, 98, 99, 100, 101, 102, 103, 104, 105, 106, 107, 108, 109, 110, 111, 112, 113, 114, 115, 116, 117, 118, 119, 120, 121, 122, 123, 124, 125, 126, 127, 128, 129, 130, 131, 132, 133, 134, 135, 136, 137, 138, 139, 140, 141, 142, 143, 144, 145, 146, 147, 148, 149, 150, 151, 152, 153, 154, 155, 156, 157, 158, 159, 160, 161, 162, 163, 164, 165, 166, 167, 168, 169, 170, 171, 172, 173, 174, 175, 176, 177, 178, 179, 180, 181, 182, 183, 184, 185, 186, 187, 188, 189, 190, 191, 192, 193, 194, 195, 196, 197, 198, 199, 200, 201, 202, 203, 204, 205, 206, 207, 208, 209, 210, 211, 212, 213, 214, 215, 216, 217, 218, 219, 220, 221, 222, 223, 224, 225, 226, 227, 228, 229, 230, 231, 232, 233, 234, 235, 236, 237, 238, 239, 240, 241, 242, 243, 244, 245, 246, 247, 248, 249, 250, 251, 252, 253, 254, 255, 256, 257, 258, 259, 260, 261, 262, 263, 264, 265, 266, 267, 268, 269, 270, 271, 272, 273, 274, 275, 276, 277, 278, 279, 280, 281, 282, 283, 284, 285, 286, 287, 288, 289, 290, 291, 292, 293, 294, 295, 296, 297, 298, 299, 300, 301, 302, 303, 304, 305, 306, 307, 308, 309, 310, 311, 312, 313, 314, 315, 316, 317, 318, 319, 320, 321, 322, 323, 324, 325, 326, 327, 328, 329, 330, 331, 332, 333, 334, 335, 336, 337, 338, 339, 340, 341, 342, 343, 344, 345, 346, 347, 348, 349, 350, 351, 352, 353, 354, 355, 356, 357, 358, 359, 360, 361, 362, 363, 364, 365, 366, 367, 368, 369, 370, 371, 372, 373, 374, 375, 376, 377, 378, 379, 380, 381, 382, 383, 384, 385, 386, 387, 388, 389, 390, 391, 392, 393, 394, 395, 396, 397, 398, 399, 400, 401, 402, 403, 404, 405, 406, 407, 408, 409, 410, 411, 412, 413, 414, 415, 416, 417, 418, 419, 420, 421, 422, 423, 424, 425, 426, 427, 428, 429, 430, 431, 432, 433, 434, 435, 436, 437, 438, 439, 440, 441, 442, 443, 444, 445, 446, 447, 448, 449, 450, 451, 452, 453, 454, 455, 456, 457, 458, 459, 460],
      "AcquisitionTime": ["095342.860000", "095344.867500", "095346.877500", "095348.885000", "095350.892500", "095352.900000", "095354.907500", "095356.917500", "095358.925000", "095400.932500", "095402.940000", "095404.947500", "095406.957500", "095408.965000", "095410.972500", "095412.980000", "095414.990000", "095416.997500", "095419.005000", "095421.012500", "095423.020000", "095425.030000", "095427.037500", "095429.045000", "095431.052500", "095433.060000", "095435.070000", "095437.077500", "095439.085000", "095441.092500", "095443.102500", "095445.110000", "095447.117500", "095449.125000", "095451.132500", "095453.142500", "095455.150000", "095457.157500", "095459.165000", "095501.172500", "095503.182500", "095505.190000", "095507.197500", "095509.205000", "095511.212500", "095513.222500", "095515.230000", "095517.237500", "095519.245000", "095521.255000", "095523.262500", "095525.270000", "095527.277500", "095529.285000", "095531.295000", "095533.302500", "095535.310000", "095537.317500", "095539.325000", "095541.335000", "095543.342500", "095545.350000", "095547.357500", "095549.367500", "095551.375000", "095553.382500", "095555.390000", "095557.397500", "095559.407500", "095601.415000", "095603.422500", "095605.430000", "095607.437500", "095609.447500", "095611.455000", "095613.462500", "095615.470000", "095617.480000", "095619.487500", "095621.495000", "095623.502500", "095625.510000", "095627.520000", "095629.527500", "095631.535000", "095633.542500", "095635.550000", "095637.560000", "095639.567500", "095641.575000", "095643.582500", "095645.592500", "095647.600000", "095649.607500", "095651.615000", "095653.622500", "095655.632500", "095657.640000", "095659.647500", "095701.655000", "095703.662500", "095705.672500", "095707.680000", "095709.687500", "095711.695000", "095713.702500", "095715.712500", "095717.720000", "095719.727500", "095721.735000", "095723.745000", "095725.752500", "095727.760000", "095729.767500", "095731.775000", "095733.785000", "095735.792500", "095737.800000", "095739.807500", "095741.815000", "095743.825000", "095745.832500", "095747.840000", "095749.847500", "095751.857500", "095753.865000", "095755.872500", "095757.880000", "095759.887500", "095801.897500", "095803.905000", "095805.912500", "095807.920000", "095809.927500", "095811.937500", "095813.945000", "095815.952500", "095817.960000", "095819.970000", "095821.977500", "095823.985000", "095825.992500", "095828.000000", "095830.010000", "095832.017500", "095834.025000", "095836.032500", "095838.040000", "095840.050000", "095842.057500", "095844.065000", "095846.072500", "095848.080000", "095850.090000", "095852.097500", "095854.105000", "095856.112500", "095858.122500", "095900.130000", "095902.137500", "095904.145000", "095906.152500", "095908.162500", "095910.170000", "095912.177500", "095914.185000", "095916.192500", "095918.202500", "095920.210000", "095922.217500", "095924.225000", "095926.235000", "095928.242500", "095930.250000", "095932.257500", "095934.265000", "095936.275000", "095938.282500", "095940.290000", "095942.297500", "095944.305000", "095946.315000", "095948.322500", "095950.330000", "095952.337500", "095954.347500", "095956.355000", "095958.362500", "100000.370000", "100002.377500", "100004.387500", "100006.395000", "100008.402500", "100010.410000", "100012.417500", "100014.427500", "100016.435000", "100018.442500", "100020.450000", "100022.457500", "100024.467500", "100026.475000", "100028.482500", "100030.490000", "100032.500000", "100034.507500", "100036.515000", "100038.522500", "100040.530000", "100042.540000", "100044.547500", "100046.555000", "100048.562500", "100050.570000", "100052.580000", "100054.587500", "100056.595000", "100058.602500", "100100.612500", "100102.620000", "100104.627500", "100106.635000", "100108.642500", "100110.652500", "100112.660000", "100114.667500", "100116.675000", "100118.682500", "100120.692500", "100122.700000", "100124.707500", "100126.715000", "100128.725000", "100130.732500", "100132.740000", "100134.747500", "100136.755000", "100138.765000", "100140.772500", "100142.780000", "100144.787500", "100146.795000", "100148.805000", "100150.812500", "100152.820000", "100154.827500", "100156.835000", "100158.845000", "100200.852500", "100202.860000", "100204.867500", "100206.877500", "100208.885000", "100210.892500", "100212.900000", "100214.907500", "100216.917500", "100218.925000", "100220.932500", "100222.940000", "100224.947500", "100226.957500", "100228.965000", "100230.972500", "100232.980000", "100234.990000", "100236.997500", "100239.005000", "100241.012500", "100243.020000", "100245.030000", "100247.037500", "100249.045000", "100251.052500", "100253.060000", "100255.070000", "100257.077500", "100259.085000", "100301.092500", "100303.102500", "100305.110000", "100307.117500", "100309.125000", "100311.132500", "100313.142500", "100315.150000", "100317.157500", "100319.165000", "100321.172500", "100323.182500", "100325.190000", "100327.197500", "100329.205000", "100331.212500", "100333.222500", "100335.230000", "100337.237500", "100339.245000", "100341.255000", "100343.262500", "100345.270000", "100347.277500", "100349.285000", "100351.295000", "100353.302500", "100355.310000", "100357.317500", "100359.325000", "100401.335000", "100403.342500", "100405.350000", "100407.357500", "100409.367500", "100411.375000", "100413.382500", "100415.390000", "100417.397500", "100419.407500", "100421.415000", "100423.422500", "100425.430000", "100427.437500", "100429.447500", "100431.455000", "100433.462500", "100435.470000", "100437.480000", "100439.487500", "100441.495000", "100443.502500", "100445.510000", "100447.520000", "100449.527500", "100451.535000", "100453.542500", "100455.550000", "100457.560000", "100459.567500", "100501.575000", "100503.582500", "100505.592500", "100507.600000", "100509.607500", "100511.615000", "100513.622500", "100515.632500", "100517.640000", "100519.647500", "100521.655000", "100523.662500", "100525.672500", "100527.680000", "100529.687500", "100531.695000", "100533.702500", "100535.712500", "100537.720000", "100539.727500", "100541.735000", "100543.745000", "100545.752500", "100547.760000", "100549.767500", "100551.775000", "100553.785000", "100555.792500", "100557.800000", "100559.807500", "100601.815000", "100603.825000", "100605.832500", "100607.840000", "100609.847500", "100611.857500", "100613.865000", "100615.872500", "100617.880000", "100619.887500", "100621.897500", "100623.905000", "100625.912500", "100627.920000", "100629.927500", "100631.937500", "100633.945000", "100635.952500", "100637.960000", "100639.970000", "100641.977500", "100643.985000", "100645.992500", "100648.000000", "100650.010000", "100652.017500", "100654.025000", "100656.032500", "100658.040000", "100700.050000", "100702.057500", "100704.065000", "100706.072500", "100708.080000", "100710.090000", "100712.097500", "100714.105000", "100716.112500", "100718.122500", "100720.130000", "100722.137500", "100724.145000", "100726.152500", "100728.162500", "100730.170000", "100732.177500", "100734.185000", "100736.192500", "100738.202500", "100740.210000", "100742.217500", "100744.225000", "100746.235000", "100748.242500", "100750.250000", "100752.257500", "100754.265000", "100756.275000", "100758.282500", "100800.290000", "100802.297500", "100804.305000", "100806.315000", "100808.322500", "100810.330000", "100812.337500", "100814.347500", "100816.355000", "100818.362500", "100820.370000", "100822.377500", "100824.387500", "100826.395000", "100828.402500", "100830.410000", "100832.417500", "100834.427500", "100836.435000", "100838.442500", "100840.450000", "100842.457500", "100844.467500", "100846.475000", "100848.482500", "100850.490000", "100852.500000", "100854.507500", "100856.515000", "100858.522500", "100900.530000", "100902.540000", "100904.547500"],
      "ContentTime": ["095436.390000", "095436.390000", "095436.390000", "095436.406000", "095436.406000", "095436.406000", "095436.406000", "095436.406000", "095436.406000", "095436.421000", "095436.421000", "095436.421000", "095436.421000", "095436.437000", "095436.437000", "095436.437000", "095436.437000", "095436.437000", "095436.437000", "095436.453000", "095436.453000", "095436.453000", "095436.453000", "095436.453000", "095436.453000", "095436.453000", "095516.375000", "095516.375000", "095516.375000", "095516.375000", "095516.390000", "095516.390000", "095516.390000", "095516.390000", "095516.390000", "095516.390000", "095516.390000", "095516.406000", "095516.406000", "095516.406000", "095516.406000", "095516.421000", "095516.421000", "095516.421000", "095516.421000", "095516.421000", "095556.375000", "095556.375000", "095556.390000", "095556.390000", "095556.390000", "095556.390000", "095556.390000", "095556.390000", "095556.390000", "095556.406000", "095556.406000", "095556.406000", "095556.406000", "095556.406000", "095556.406000", "095556.421000", "095556.421000", "095556.421000", "095556.421000", "095556.421000", "095636.375000", "095636.375000", "095636.375000", "095636.375000", "095636.390000", "095636.390000", "095636.390000", "095636.390000", "095636.390000", "095636.390000", "095636.406000", "095636.406000", "095636.406000", "095636.406000", "095636.406000", "095636.406000", "095636.406000", "095636.421000", "095636.421000", "095636.421000", "095716.375000", "095716.375000", "095716.375000", "095716.375000", "095716.390000", "095716.390000", "095716.390000", "095716.390000", "095716.390000", "095716.390000", "095716.390000", "095716.406000", "095716.406000", "095716.406000", "095716.406000", "095716.421000", "095716.421000", "095716.421000", "095716.437000", "095716.453000", "095756.375000", "095756.375000", "095756.375000", "095756.375000", "095756.390000", "095756.390000", "095756.390000", "095756.390000", "095756.390000", "095756.390000", "095756.390000", "095756.406000", "095756.406000", "095756.406000", "095756.406000", "095756.406000", "095756.421000", "095756.421000", "095756.421000", "095756.421000", "095836.375000", "095836.375000", "095836.375000", "095836.375000", "095836.390000", "095836.390000", "095836.390000", "095836.390000", "095836.390000", "095836.390000", "095836.406000", "095836.406000", "095836.406000", "095836.406000", "095836.406000", "095836.406000", "095836.421000", "095836.421000", "095836.421000", "095836.421000", "095916.375000", "095916.375000", "095916.375000", "095916.375000", "095916.390000", "095916.390000", "095916.390000", "095916.390000", "095916.390000", "095916.390000", "095916.390000", "095916.406000", "095916.406000", "095916.406000", "095916.406000", "095916.406000", "095916.406000", "095916.421000", "095916.421000", "095916.421000", "095956.375000", "095956.375000", "095956.375000", "095956.375000", "095956.390000", "095956.390000", "095956.390000", "095956.390000", "095956.390000", "095956.390000", "095956.390000", "095956.406000", "095956.406000", "095956.406000", "095956.406000", "095956.406000", "095956.406000", "095956.406000", "095956.421000", "095956.421000", "100036.375000", "100036.390000", "100036.390000", "100036.406000", "100036.406000", "100036.406000", "100036.406000", "100036.406000", "100036.421000", "100036.421000", "100036.421000", "100036.421000", "100036.421000", "100036.421000", "100036.421000", "100036.437000", "100036.437000", "100036.437000", "100036.437000", "100036.437000", "100116.375000", "100116.375000", "100116.375000", "100116.375000", "100116.390000", "100116.390000", "100116.390000", "100116.390000", "100116.390000", "100116.390000", "100116.390000", "100116.406000", "100116.406000", "100116.406000", "100116.406000", "100116.406000", "100116.406000", "100116.421000", "100116.421000", "100116.421000", "100136.375000", "100136.375000", "100136.390000", "100136.390000", "100136.390000", "100136.390000", "100136.390000", "100136.390000", "100136.390000", "100136.406000", "100216.375000", "100216.375000", "100216.375000", "100216.375000", "100216.390000", "100216.390000", "100216.390000", "100216.390000", "100216.390000", "100216.390000", "100216.390000", "100216.406000", "100216.406000", "100216.406000", "100216.406000", "100216.406000", "100216.406000", "100216.406000", "100216.421000", "100216.421000", "100256.375000", "100256.375000", "100256.375000", "100256.375000", "100256.390000", "100256.390000", "100256.390000", "100256.390000", "100256.390000", "100256.390000", "100256.390000", "100256.406000", "100256.406000", "100256.406000", "100256.406000", "100256.406000", "100256.406000", "100256.406000", "100256.421000", "100256.421000", "100336.375000", "100336.375000", "100336.375000", "100336.375000", "100336.390000", "100336.390000", "100336.390000", "100336.390000", "100336.390000", "100336.390000", "100336.390000", "100336.406000", "100336.406000", "100336.406000", "100336.406000", "100336.406000", "100336.406000", "100336.406000", "100336.421000", "100336.421000", "100416.375000", "100416.375000", "100416.375000", "100416.390000", "100416.390000", "100416.390000", "100416.390000", "100416.390000", "100416.390000", "100416.406000", "100416.406000", "100416.406000", "100416.406000", "100416.406000", "100416.406000", "100416.406000", "100416.421000", "100416.421000", "100416.421000", "100416.437000", "100456.375000", "100456.375000", "100456.375000", "100456.375000", "100456.390000", "100456.390000", "100456.390000", "100456.390000", "100456.390000", "100456.390000", "100456.390000", "100456.406000", "100456.406000", "100456.406000", "100456.406000", "100456.406000", "100456.406000", "100456.406000", "100456.421000", "100456.421000", "100536.375000", "100536.375000", "100536.375000", "100536.375000", "100536.390000", "100536.390000", "100536.390000", "100536.390000", "100536.390000", "100536.390000", "100536.390000", "100536.406000", "100536.406000", "100536.406000", "100536.406000", "100536.406000", "100536.406000", "100536.406000", "100536.421000", "100536.421000", "100616.375000", "100616.375000", "100616.375000", "100616.390000", "100616.390000", "100616.390000", "100616.390000", "100616.390000", "100616.390000", "100616.390000", "100616.406000", "100616.406000", "100616.406000", "100616.406000", "100616.406000", "100616.406000", "100616.421000", "100616.421000", "100616.421000", "100616.421000", "100656.375000", "100656.375000", "100656.375000", "100656.375000", "100656.390000", "100656.390000", "100656.390000", "100656.390000", "100656.406000", "100656.406000", "100656.406000", "100656.406000", "100656.421000", "100656.421000", "100656.421000", "100656.421000", "100656.421000", "100656.437000", "100656.437000", "100656.437000", "100736.375000", "100736.375000", "100736.375000", "100736.375000", "100736.390000", "100736.390000", "100736.390000", "100736.390000", "100736.390000", "100736.390000", "100736.390000", "100736.406000", "100736.406000", "100736.406000", "100736.406000", "100736.406000", "100736.406000", "100736.421000", "100736.421000", "100736.421000", "100816.375000", "100816.375000", "100816.375000", "100816.375000", "100816.390000", "100816.390000", "100816.390000", "100816.390000", "100816.390000", "100816.390000", "100816.390000", "100816.406000", "100816.406000", "100816.406000", "100816.406000", "100816.406000", "100816.406000", "100816.421000", "100816.421000", "100816.421000", "100856.375000", "100856.375000", "100856.375000", "100856.375000", "100856.390000", "100856.390000", "100856.390000", "100856.390000", "100856.390000", "100856.390000", "100856.390000", "100856.406000", "100856.406000", "100856.406000", "100856.406000", "100856.406000", "100856.406000", "100856.406000", "100856.421000", "100856.421000", "100904.328000", "100904.406000", "100904.406000", "100904.406000"],
