{
  "AcquisitionMatrixPE": 72,
  "AcquisitionNumber": 1,
  "AcquisitionTime": "15:23:44.742500",
  "BandwidthPerPixelPhaseEncode": 28.935,
  "BaseResolution": 72,
  "CoilString": "C:HEA;HEP",
  "ConversionSoftware": "dcm2niix",
  "ConversionSoftwareVersion": "v1.0.20190410  GCC6.3.0",
  "DerivedVendorReportedEchoSpacing": 0.000480003,
  "DeviceSerialNumber": "35149",
  "DwellTime": 2.9e-06,
  "EchoTime": 0.025,
  "EffectiveEchoSpacing": 0.000480003,
  "FlipAngle": 75,
  "ImageOrientationPatientDICOM": [0.996249, -0.0582696, -0.0639804, 0.0278201, 0.915739, -0.400809],
  "ImageType": [
    "ORIGINAL",
    "PRIMARY",
    "M",
    "ND",
    "MOSAIC"
],
  "ImagingFrequency": 123.255,
  "InPlanePhaseEncodingDirectionDICOM": "COL",
  "InstitutionAddress": "Street_StreetNo_Rehovot_91E162_District_IL_ZIP",
  "InstitutionName": "Weizmann",
  "InstitutionalDepartmentName": "Department",
  "MRAcquisitionType": "2D",
  "MagneticFieldStrength": 3,
  "Manufacturer": "Siemens",
  "ManufacturersModelName": "TrioTim",
  "Modality": "MR",
  "PartialFourier": 1,
  "PatientPosition": "HFS",
  "PercentPhaseFOV": 100,
  "PhaseEncodingDirection": "j-",
  "PhaseEncodingSteps": 72,
  "PhaseResolution": 1,
  "PixelBandwidth": 2395,
  "ProcedureStepDescription": "Weizmann_Sobel",
  "ProtocolName": "exp1_30_to_AC-PC",
  "PulseSequenceDetails": "%SiemensSeq%_ep2d_pace",
  "ReceiveCoilName": "HeadMatrix",
  "ReconMatrixPE": 72,
  "RepetitionTime": 2,
  "SAR": 0.148503,
  "ScanOptions": "FS",
  "ScanningSequence": "EP",
  "SequenceName": "_epfid2d1_72",
  "SequenceVariant": "SK",
  "SeriesDescription": "exp1_30_to_AC-PC",
  "SeriesNumber": 5,
  "ShimSetting": [2289, 9314, -5354, 129, 24, -350, 67, 177],
  "SliceThickness": 3.7,
  "SliceTiming": [0.9925, 0, 1.05, 0.0575, 1.11, 0.115, 1.1675, 0.175, 1.2275, 0.2325, 1.285, 0.29, 1.3425, 0.35, 1.4025, 0.4075, 1.46, 0.4675, 1.5175, 0.525, 1.5775, 0.5825, 1.635, 0.6425, 1.695, 0.7, 1.7525, 0.7575, 1.81, 0.8175, 1.87, 0.875, 1.9275, 0.935],
  "SoftwareVersions": "syngo_MR_B17",
  "SpacingBetweenSlices": 3.7,
  "StationName": "MRC35149",
  "TaskName": "bodyodor",
  "TotalReadoutTime": 0.0340802,
  "TxRefAmp": 264.933,
  "VendorReportedEchoSpacing": 0.00048,
  "dcmmeta_affine": [
    [-2.98874568939209, 0.08346040546894073, -0.3031940162181854, 107.18537139892578],
    [0.17480871081352234, 2.7472169399261475, -1.4708458185195923, -67.89557647705078],
    [-0.19194117188453674, 1.2024283409118652, 3.381521224975586, -55.629661560058594],
    [0.0, 0.0, 0.0, 1.0]
],
  "dcmmeta_reorient_transform": [
    [0.0, -1.0, 0.0, 71.0],
    [1.0, 0.0, 0.0, 0.0],
    [0.0, 0.0, 1.0, 0.0],
    [0.0, 0.0, 0.0, 1.0]
],
  "dcmmeta_shape": [72, 72, 34, 450],
  "dcmmeta_slice_dim": 2,
  "dcmmeta_version": 0.6,
  "global": {
    "const": {
      "AcquisitionMatrix": [72, 0, 0, 72],
      "AngioFlag": "N",
      "BitsAllocated": 16,
      "BitsStored": 12,
      "Columns": 432,
      "EchoNumbers": 1,
      "EchoTime": 25.0,
      "EchoTrainLength": 1,
      "FlipAngle": 75.0,
      "HighBit": 11,
      "ImageOrientationPatient": [0.99624854679166, -0.0582695701037, -0.0639803893037, 0.02782013495147, 0.91573894387415, -0.4008094644136],
      "ImagePositionPatient": [-666.10814655667, -590.19027932535, 280.72927541938],
      "ImageType": [
        "ORIGINAL",
        "PRIMARY",
        "M",
        "ND",
        "MOSAIC"
],
      "ImagedNucleus": "1H",
      "ImagingFrequency": 123.254673,
      "InPlanePhaseEncodingDirection": "COL",
      "MRAcquisitionType": "2D",
      "MagneticFieldStrength": 3.0,
      "Manufacturer": "SIEMENS",
      "ManufacturerModelName": "TrioTim",
      "Modality": "MR",
      "NumberOfAverages": 1.0,
      "NumberOfPhaseEncodingSteps": 72,
      "PercentPhaseFieldOfView": 100.0,
      "PercentSampling": 100.0,
      "PerformedProcedureStepStartTime": "143737.781000",
      "PhotometricInterpretation": "MONOCHROME2",
      "PixelBandwidth": 2395.0,
      "PixelRepresentation": 0,
      "PixelSpacing": [3.0, 3.0],
      "ProtocolName": "exp1_30_to_AC-PC",
      "RepetitionTime": 2000.0,
      "Rows": 432,
      "SAR": 0.14850308625005,
      "SamplesPerPixel": 1,
      "ScanOptions": "FS",
      "ScanningSequence": "EP",
      "SequenceName": "*epfid2d1_72",
      "SequenceVariant": "SK",
      "SeriesDescription": "exp1_30_to_AC-PC",
      "SeriesNumber": 5,
      "SeriesTime": "152438.812000",
      "SliceLocation": -32.63430187049,
      "SliceThickness": 3.7000000476837,
      "SmallestImagePixelValue": 0,
      "SoftwareVersions": "syngo MR B17",
      "SpacingBetweenSlices": 3.6999999885216,
      "SpecificCharacterSet": "ISO_IR 100",
      "StudyID": "1",
      "StudyTime": "143737.656000",
      "TransmitCoilName": "Body",
      "VariableFlipAngleFlag": "N",
      "WindowCenterWidthExplanation": "Algo1",
      "dBdt": 0.0},
    "slices": {}
  },
  "time": {
    "samples": {
      "AcquisitionNumber": [1, 2, 3, 4, 5, 6, 7, 8, 9, 10, 11, 12, 13, 14, 15, 16, 17, 18, 19, 20, 21, 22, 23, 24, 25, 26, 27, 28, 29, 30, 31, 32, 33, 34, 35, 36, 37, 38, 39, 40, 41, 42, 43, 44, 45, 46, 47, 48, 49, 50, 51, 52, 53, 54, 55, 56, 57, 58, 59, 60, 61, 62, 63, 64, 65, 66, 67, 68, 69, 70, 71, 72, 73, 74, 75, 76, 77, 78, 79, 80, 81, 82, 83, 84, 85, 86, 87, 88, 89, 90, 91, 92, 93, 94, 95, 96, 97, 98, 99, 100, 101, 102, 103, 104, 105, 106, 107, 108, 109, 110, 111, 112, 113, 114, 115, 116, 117, 118, 119, 120, 121, 122, 123, 124, 125, 126, 127, 128, 129, 130, 131, 132, 133, 134, 135, 136, 137, 138, 139, 140, 141, 142, 143, 144, 145, 146, 147, 148, 149, 150, 151, 152, 153, 154, 155, 156, 157, 158, 159, 160, 161, 162, 163, 164, 165, 166, 167, 168, 169, 170, 171, 172, 173, 174, 175, 176, 177, 178, 179, 180, 181, 182, 183, 184, 185, 186, 187, 188, 189, 190, 191, 192, 193, 194, 195, 196, 197, 198, 199, 200, 201, 202, 203, 204, 205, 206, 207, 208, 209, 210, 211, 212, 213, 214, 215, 216, 217, 218, 219, 220, 221, 222, 223, 224, 225, 226, 227, 228, 229, 230, 231, 232, 233, 234, 235, 236, 237, 238, 239, 240, 241, 242, 243, 244, 245, 246, 247, 248, 249, 250, 251, 252, 253, 254, 255, 256, 257, 258, 259, 260, 261, 262, 263, 264, 265, 266, 267, 268, 269, 270, 271, 272, 273, 274, 275, 276, 277, 278, 279, 280, 281, 282, 283, 284, 285, 286, 287, 288, 289, 290, 291, 292, 293, 294, 295, 296, 297, 298, 299, 300, 301, 302, 303, 304, 305, 306, 307, 308, 309, 310, 311, 312, 313, 314, 315, 316, 317, 318, 319, 320, 321, 322, 323, 324, 325, 326, 327, 328, 329, 330, 331, 332, 333, 334, 335, 336, 337, 338, 339, 340, 341, 342, 343, 344, 345, 346, 347, 348, 349, 350, 351, 352, 353, 354, 355, 356, 357, 358, 359, 360, 361, 362, 363, 364, 365, 366, 367, 368, 369, 370, 371, 372, 373, 374, 375, 376, 377, 378, 379, 380, 381, 382, 383, 384, 385, 386, 387, 388, 389, 390, 391, 392, 393, 394, 395, 396, 397, 398, 399, 400, 401, 402, 403, 404, 405, 406, 407, 408, 409, 410, 411, 412, 413, 414, 415, 416, 417, 418, 419, 420, 421, 422, 423, 424, 425, 426, 427, 428, 429, 430, 431, 432, 433, 434, 435, 436, 437, 438, 439, 440, 441, 442, 443, 444, 445, 446, 447, 448, 449, 450],
      "AcquisitionTime": ["152344.742500", "152346.750000", "152348.757500", "152350.767500", "152352.775000", "152354.782500", "152356.790000", "152358.797500", "152400.807500", "152402.815000", "152404.822500", "152406.830000", "152408.840000", "152410.847500", "152412.855000", "152414.862500", "152416.870000", "152418.880000", "152420.887500", "152422.895000", "152424.902500", "152426.910000", "152428.920000", "152430.927500", "152432.935000", "152434.942500", "152436.952500", "152438.960000", "152440.967500", "152442.975000", "152444.982500", "152446.992500", "152449.000000", "152451.007500", "152453.015000", "152455.022500", "152457.032500", "152459.040000", "152501.047500", "152503.055000", "152505.065000", "152507.072500", "152509.080000", "152511.087500", "152513.095000", "152515.105000", "152517.112500", "152519.120000", "152521.127500", "152523.135000", "152525.145000", "152527.152500", "152529.160000", "152531.167500", "152533.175000", "152535.185000", "152537.192500", "152539.200000", "152541.207500", "152543.217500", "152545.225000", "152547.232500", "152549.240000", "152551.247500", "152553.257500", "152555.265000", "152557.272500", "152559.280000", "152601.287500", "152603.297500", "152605.305000", "152607.312500", "152609.320000", "152611.330000", "152613.337500", "152615.345000", "152617.352500", "152619.360000", "152621.370000", "152623.377500", "152625.385000", "152627.392500", "152629.400000", "152631.410000", "152633.417500", "152635.425000", "152637.432500", "152639.442500", "152641.450000", "152643.457500", "152645.465000", "152647.472500", "152649.482500", "152651.490000", "152653.497500", "152655.505000", "152657.512500", "152659.522500", "152701.530000", "152703.537500", "152705.545000", "152707.552500", "152709.562500", "152711.570000", "152713.577500", "152715.585000", "152717.595000", "152719.602500", "152721.610000", "152723.617500", "152725.625000", "152727.635000", "152729.642500", "152731.650000", "152733.657500", "152735.665000", "152737.675000", "152739.682500", "152741.690000", "152743.697500", "152745.707500", "152747.715000", "152749.722500", "152751.730000", "152753.737500", "152755.747500", "152757.755000", "152759.762500", "152801.770000", "152803.777500", "152805.787500", "152807.795000", "152809.802500", "152811.810000", "152813.820000", "152815.827500", "152817.835000", "152819.842500", "152821.850000", "152823.860000", "152825.867500", "152827.875000", "152829.882500", "152831.890000", "152833.900000", "152835.907500", "152837.915000", "152839.922500", "152841.930000", "152843.940000", "152845.947500", "152847.955000", "152849.962500", "152851.972500", "152853.980000", "152855.987500", "152857.995000", "152900.002500", "152902.012500", "152904.020000", "152906.027500", "152908.035000", "152910.042500", "152912.052500", "152914.060000", "152916.067500", "152918.075000", "152920.085000", "152922.092500", "152924.100000", "152926.107500", "152928.115000", "152930.125000", "152932.132500", "152934.140000", "152936.147500", "152938.155000", "152940.165000", "152942.172500", "152944.180000", "152946.187500", "152948.197500", "152950.205000", "152952.212500", "152954.220000", "152956.227500", "152958.237500", "153000.245000", "153002.252500", "153004.260000", "153006.267500", "153008.277500", "153010.285000", "153012.292500", "153014.300000", "153016.310000", "153018.317500", "153020.325000", "153022.332500", "153024.340000", "153026.350000", "153028.357500", "153030.365000", "153032.372500", "153034.380000", "153036.390000", "153038.397500", "153040.405000", "153042.412500", "153044.420000", "153046.430000", "153048.437500", "153050.445000", "153052.452500", "153054.462500", "153056.470000", "153058.477500", "153100.485000", "153102.492500", "153104.502500", "153106.510000", "153108.517500", "153110.525000", "153112.532500", "153114.542500", "153116.550000", "153118.557500", "153120.565000", "153122.575000", "153124.582500", "153126.590000", "153128.597500", "153130.605000", "153132.615000", "153134.622500", "153136.630000", "153138.637500", "153140.645000", "153142.655000", "153144.662500", "153146.670000", "153148.677500", "153150.687500", "153152.695000", "153154.702500", "153156.710000", "153158.717500", "153200.727500", "153202.735000", "153204.742500", "153206.750000", "153208.757500", "153210.767500", "153212.775000", "153214.782500", "153216.790000", "153218.797500", "153220.807500", "153222.815000", "153224.822500", "153226.830000", "153228.840000", "153230.847500", "153232.855000", "153234.862500", "153236.870000", "153238.880000", "153240.887500", "153242.895000", "153244.902500", "153246.910000", "153248.920000", "153250.927500", "153252.935000", "153254.942500", "153256.952500", "153258.960000", "153300.967500", "153302.975000", "153304.982500", "153306.992500", "153309.000000", "153311.007500", "153313.015000", "153315.022500", "153317.032500", "153319.040000", "153321.047500", "153323.055000", "153325.065000", "153327.072500", "153329.080000", "153331.087500", "153333.095000", "153335.105000", "153337.112500", "153339.120000", "153341.127500", "153343.135000", "153345.145000", "153347.152500", "153349.160000", "153351.167500", "153353.175000", "153355.185000", "153357.192500", "153359.200000", "153401.207500", "153403.217500", "153405.225000", "153407.232500", "153409.240000", "153411.247500", "153413.257500", "153415.265000", "153417.272500", "153419.280000", "153421.287500", "153423.297500", "153425.305000", "153427.312500", "153429.320000", "153431.330000", "153433.337500", "153435.345000", "153437.352500", "153439.360000", "153441.370000", "153443.377500", "153445.385000", "153447.392500", "153449.400000", "153451.410000", "153453.417500", "153455.425000", "153457.432500", "153459.442500", "153501.450000", "153503.457500", "153505.465000", "153507.472500", "153509.482500", "153511.490000", "153513.497500", "153515.505000", "153517.512500", "153519.522500", "153521.530000", "153523.537500", "153525.545000", "153527.552500", "153529.562500", "153531.570000", "153533.577500", "153535.585000", "153537.595000", "153539.602500", "153541.610000", "153543.617500", "153545.625000", "153547.635000", "153549.642500", "153551.650000", "153553.657500", "153555.665000", "153557.675000", "153559.682500", "153601.690000", "153603.697500", "153605.707500", "153607.715000", "153609.722500", "153611.730000", "153613.737500", "153615.747500", "153617.755000", "153619.762500", "153621.770000", "153623.777500", "153625.787500", "153627.795000", "153629.802500", "153631.810000", "153633.820000", "153635.827500", "153637.835000", "153639.842500", "153641.850000", "153643.860000", "153645.867500", "153647.875000", "153649.882500", "153651.890000", "153653.900000", "153655.907500", "153657.915000", "153659.922500", "153701.930000", "153703.940000", "153705.947500", "153707.955000", "153709.962500", "153711.972500", "153713.980000", "153715.987500", "153717.995000", "153720.002500", "153722.012500", "153724.020000", "153726.027500", "153728.035000", "153730.042500", "153732.052500", "153734.060000", "153736.067500", "153738.075000", "153740.085000", "153742.092500", "153744.100000", "153746.107500", "153748.115000", "153750.125000", "153752.132500", "153754.140000", "153756.147500", "153758.155000", "153800.165000", "153802.172500", "153804.180000", "153806.187500", "153808.197500", "153810.205000", "153812.212500", "153814.220000", "153816.227500", "153818.237500", "153820.245000", "153822.252500", "153824.260000", "153826.267500", "153828.277500", "153830.285000", "153832.292500", "153834.300000", "153836.310000", "153838.317500", "153840.325000", "153842.332500", "153844.340000", "153846.350000"],
      "ContentTime": ["152438.828000", "152438.828000", "152438.828000", "152438.828000", "152438.828000", "152438.828000", "152438.843000", "152438.843000", "152438.843000", "152438.843000", "152438.843000", "152438.843000", "152438.843000", "152438.859000", "152438.859000", "152438.859000", "152438.859000", "152438.859000", "152438.875000", "152438.875000", "152438.875000", "152438.875000", "152438.875000", "152438.875000", "152438.875000", "152438.890000", "152518.812000", "152518.812000", "152518.812000", "152518.812000", "152518.828000", "152518.828000", "152518.828000", "152518.828000", "152518.828000", "152518.828000", "152518.828000", "152518.843000", "152518.843000", "152518.843000", "152518.843000", "152518.859000", "152518.859000", "152518.859000", "152518.859000", "152518.859000", "152558.812000", "152558.828000", "152558.828000", "152558.828000", "152558.828000", "152558.843000", "152558.843000", "152558.843000", "152558.843000", "152558.859000", "152558.859000", "152558.859000", "152558.859000", "152558.859000", "152558.859000", "152558.875000", "152558.875000", "152558.875000", "152558.875000", "152558.875000", "152638.812000", "152638.812000", "152638.812000", "152638.812000", "152638.828000", "152638.828000", "152638.828000", "152638.828000", "152638.828000", "152638.828000", "152638.828000", "152638.843000", "152638.843000", "152638.843000", "152638.843000", "152638.843000", "152638.843000", "152638.859000", "152638.859000", "152638.859000", "152718.812000", "152718.812000", "152718.812000", "152718.812000", "152718.828000", "152718.828000", "152718.828000", "152718.828000", "152718.828000", "152718.828000", "152718.828000", "152718.843000", "152718.843000", "152718.843000", "152718.859000", "152718.859000", "152718.859000", "152718.859000", "152718.859000", "152718.875000", "152738.812000", "152738.812000", "152738.812000", "152738.812000", "152738.828000", "152738.828000", "152738.828000", "152738.828000", "152738.828000", "152738.828000", "152818.812000", "152818.812000", "152818.828000", "152818.828000", "152818.828000", "152818.828000", "152818.828000", "152818.828000", "152818.843000", "152818.843000", "152818.843000", "152818.843000", "152818.843000", "152818.843000", "152818.843000", "152818.859000", "152818.859000", "152818.859000", "152818.859000", "152818.859000", "152858.812000", "152858.812000", "152858.828000", "152858.828000", "152858.828000", "152858.828000", "152858.828000", "152858.828000", "152858.828000", "152858.843000", "152858.843000", "152858.843000", "152858.843000", "152858.843000", "152858.843000", "152858.843000", "152858.859000", "152858.859000", "152858.859000", "152858.859000", "152938.812000", "152938.812000", "152938.812000", "152938.812000", "152938.828000", "152938.828000", "152938.828000", "152938.828000", "152938.828000", "152938.828000", "152938.828000", "152938.843000", "152938.843000", "152938.843000", "152938.843000", "152938.843000", "152938.843000", "152938.843000", "152938.859000", "152938.859000", "153018.812000", "153018.812000", "153018.812000", "153018.828000", "153018.828000", "153018.828000", "153018.828000", "153018.828000", "153018.843000", "153018.843000", "153018.843000", "153018.843000", "153018.843000", "153018.843000", "153018.843000", "153018.859000", "153018.859000", "153018.859000", "153018.859000", "153018.859000", "153058.812000", "153058.812000", "153058.812000", "153058.812000", "153058.828000", "153058.828000", "153058.828000", "153058.828000", "153058.828000", "153058.828000", "153058.828000", "153058.843000", "153058.843000", "153058.843000", "153058.843000", "153058.843000", "153058.843000", "153058.843000", "153058.859000", "153058.859000", "153138.812000", "153138.812000", "153138.828000", "153138.828000", "153138.828000", "153138.828000", "153138.828000", "153138.828000", "153138.828000", "153138.843000", "153138.843000", "153138.843000", "153138.843000", "153138.843000", "153138.843000", "153138.843000", "153138.859000", "153138.859000", "153138.859000", "153138.859000", "153218.812000", "153218.812000", "153218.812000", "153218.812000", "153218.828000", "153218.828000", "153218.828000", "153218.828000", "153218.828000", "153218.828000", "153218.828000", "153218.843000", "153218.843000", "153218.843000", "153218.843000", "153218.843000", "153218.859000", "153218.859000", "153218.875000", "153218.875000", "153258.812000", "153258.812000", "153258.812000", "153258.812000", "153258.828000", "153258.828000", "153258.828000", "153258.828000", "153258.828000", "153258.828000", "153258.828000", "153258.843000", "153258.843000", "153258.843000", "153258.843000", "153258.843000", "153258.843000", "153258.859000", "153258.859000", "153258.859000", "153338.812000", "153338.812000", "153338.812000", "153338.812000", "153338.828000", "153338.828000", "153338.828000", "153338.828000", "153338.828000", "153338.828000", "153338.843000", "153338.843000", "153338.843000", "153338.843000", "153338.859000", "153338.859000", "153338.859000", "153338.859000", "153338.859000", "153338.859000", "153418.812000", "153418.812000", "153418.812000", "153418.812000", "153418.828000", "153418.828000", "153418.828000", "153418.843000", "153418.843000", "153418.843000", "153418.843000", "153418.843000", "153418.843000", "153418.843000", "153418.859000", "153418.859000", "153418.859000", "153418.859000", "153418.859000", "153418.859000", "153458.812000", "153458.812000", "153458.812000", "153458.812000", "153458.828000", "153458.828000", "153458.828000", "153458.828000", "153458.828000", "153458.828000", "153458.828000", "153458.843000", "153458.843000", "153458.843000", "153458.843000", "153458.843000", "153458.843000", "153458.843000", "153458.859000", "153458.859000", "153538.812000", "153538.812000", "153538.812000", "153538.812000", "153538.828000", "153538.828000", "153538.828000", "153538.828000", "153538.828000", "153538.828000", "153538.828000", "153538.843000", "153538.843000", "153538.843000", "153538.843000", "153538.843000", "153538.843000", "153538.843000", "153538.859000", "153538.859000", "153618.812000", "153618.828000", "153618.828000", "153618.828000", "153618.828000", "153618.828000", "153618.828000", "153618.843000", "153618.843000", "153618.843000", "153618.843000", "153618.843000", "153618.843000", "153618.843000", "153618.859000", "153618.859000", "153618.859000", "153618.859000", "153618.859000", "153618.859000", "153658.812000", "153658.812000", "153658.812000", "153658.812000", "153658.828000", "153658.828000", "153658.828000", "153658.828000", "153658.828000", "153658.828000", "153658.828000", "153658.843000", "153658.843000", "153658.843000", "153658.843000", "153658.843000", "153658.843000", "153658.843000", "153658.859000", "153658.859000", "153738.812000", "153738.812000", "153738.812000", "153738.812000", "153738.828000", "153738.828000", "153738.828000", "153738.828000", "153738.828000", "153738.828000", "153738.843000", "153738.843000", "153738.843000", "153738.843000", "153738.843000", "153738.843000", "153738.843000", "153738.859000", "153738.859000", "153738.859000", "153818.812000", "153818.812000", "153818.812000", "153818.812000", "153818.828000", "153818.828000", "153818.828000", "153818.828000", "153818.828000", "153818.828000", "153818.828000", "153818.843000", "153818.843000", "153818.843000", "153818.843000", "153818.843000", "153818.843000", "153818.843000", "153818.859000", "153818.859000", "153845.109000", "153845.109000", "153845.109000", "153845.109000", "153845.125000", "153845.125000", "153845.125000", "153845.125000", "153845.125000", "153845.125000", "153845.140000", "153845.140000", "153845.140000", "153845.140000"],
