{
  "AcquisitionMatrixPE": 72,
  "AcquisitionNumber": 1,
  "AcquisitionTime": "14:27:32.297500",
  "BandwidthPerPixelPhaseEncode": 28.935,
  "BaseResolution": 72,
  "CoilString": "C:HEA;HEP",
  "ConversionSoftware": "dcm2niix",
  "ConversionSoftwareVersion": "v1.0.20190410  GCC6.3.0",
  "DerivedVendorReportedEchoSpacing": 0.000480003,
  "DeviceSerialNumber": "35149",
  "DwellTime": 2.9e-06,
  "EchoTime": 0.025,
  "EffectiveEchoSpacing": 0.000480003,
  "FlipAngle": 75,
  "ImageOrientationPatientDICOM": [0.999949, -0.00710607, -0.00718108, 0.00736157, 0.999317, 0.0362027],
  "ImageType": [
    "ORIGINAL",
    "PRIMARY",
    "M",
    "ND",
    "MOSAIC"
],
  "ImagingFrequency": 123.255,
  "InPlanePhaseEncodingDirectionDICOM": "COL",
  "InstitutionAddress": "Street_StreetNo_Rehovot_91E162_District_IL_ZIP",
  "InstitutionName": "Weizmann",
  "InstitutionalDepartmentName": "Department",
  "MRAcquisitionType": "2D",
  "MagneticFieldStrength": 3,
  "Manufacturer": "Siemens",
  "ManufacturersModelName": "TrioTim",
  "Modality": "MR",
  "PartialFourier": 1,
  "PatientPosition": "HFS",
  "PercentPhaseFOV": 100,
  "PhaseEncodingDirection": "j-",
  "PhaseEncodingSteps": 72,
  "PhaseResolution": 1,
  "PixelBandwidth": 2395,
  "ProcedureStepDescription": "Weizmann_Sobel",
  "ProtocolName": "exp2_30_to_AC-PC",
  "PulseSequenceDetails": "%SiemensSeq%_ep2d_pace",
  "ReceiveCoilName": "HeadMatrix",
  "ReconMatrixPE": 72,
  "RepetitionTime": 2,
  "SAR": 0.121661,
  "ScanOptions": "FS",
  "ScanningSequence": "EP",
  "SequenceName": "_epfid2d1_72",
  "SequenceVariant": "SK",
  "SeriesDescription": "exp2_30_to_AC-PC",
  "SeriesNumber": 6,
  "ShimSetting": [2461, 9105, -5804, 575, 671, -1314, -680, 12],
  "SliceThickness": 3.7,
  "SliceTiming": [0.9925, 0, 1.0525, 0.0575, 1.11, 0.1175, 1.1675, 0.175, 1.2275, 0.2325, 1.285, 0.2925, 1.345, 0.35, 1.4025, 0.4075, 1.46, 0.4675, 1.52, 0.525, 1.5775, 0.585, 1.635, 0.6425, 1.695, 0.7, 1.7525, 0.76, 1.8125, 0.8175, 1.87, 0.8775, 1.9275, 0.935],
  "SoftwareVersions": "syngo_MR_B17",
  "SpacingBetweenSlices": 3.7,
  "StationName": "MRC35149",
  "TaskName": "bodyodor",
  "TotalReadoutTime": 0.0340802,
  "TxRefAmp": 266.509,
  "VendorReportedEchoSpacing": 0.00048,
  "dcmmeta_affine": [
    [-2.999846935272217, 0.02208469808101654, -0.025599993765354156, 112.33635711669922],
    [0.02131820097565651, 2.9979519844055176, 0.134138822555542, -84.56307983398438],
    [-0.0215432308614254, -0.10860814154148102, 3.697479724884033, -24.304689407348633],
    [0.0, 0.0, 0.0, 1.0]
],
  "dcmmeta_reorient_transform": [
    [0.0, -1.0, 0.0, 71.0],
    [1.0, 0.0, 0.0, 0.0],
    [0.0, 0.0, 1.0, 0.0],
    [0.0, 0.0, 0.0, 1.0]
],
  "dcmmeta_shape": [72, 72, 34, 454],
  "dcmmeta_slice_dim": 2,
  "dcmmeta_version": 0.6,
  "global": {
    "const": {
      "AcquisitionMatrix": [72, 0, 0, 72],
      "AngioFlag": "N",
      "BitsAllocated": 16,
      "BitsStored": 12,
      "Columns": 432,
      "EchoNumbers": 1,
      "EchoTime": 25.0,
      "EchoTrainLength": 1,
      "FlipAngle": 75.0,
      "HighBit": 11,
      "ImageOrientationPatient": [0.99994896666935, -0.0071060669542, -0.0071810771719, 0.00736156618749, 0.99931735239403, 0.03620271464208],
      "ImagePositionPatient": [-657.85206103037, -664.08560720941, -47.687551842401],
      "ImageType": [
        "ORIGINAL",
        "PRIMARY",
        "M",
        "ND",
        "MOSAIC"
],
      "ImagedNucleus": "1H",
      "ImagingFrequency": 123.254761,
      "InPlanePhaseEncodingDirection": "COL",
      "MRAcquisitionType": "2D",
      "MagneticFieldStrength": 3.0,
      "Manufacturer": "SIEMENS",
      "ManufacturerModelName": "TrioTim",
      "Modality": "MR",
      "NumberOfAverages": 1.0,
      "NumberOfPhaseEncodingSteps": 72,
      "PercentPhaseFieldOfView": 100.0,
      "PercentSampling": 100.0,
      "PerformedProcedureStepStartTime": "133813.937000",
      "PhotometricInterpretation": "MONOCHROME2",
      "PixelBandwidth": 2395.0,
      "PixelRepresentation": 0,
      "PixelSpacing": [3.0, 3.0],
      "ProtocolName": "exp2_30_to_AC-PC",
      "RepetitionTime": 2000.0,
      "Rows": 432,
      "SAR": 0.12166124716306,
      "SamplesPerPixel": 1,
      "ScanOptions": "FS",
      "ScanningSequence": "EP",
      "SequenceName": "*epfid2d1_72",
      "SequenceVariant": "SK",
      "SeriesDescription": "exp2_30_to_AC-PC",
      "SeriesNumber": 6,
      "SeriesTime": "142823.046000",
      "SliceLocation": -28.131102889143,
      "SliceThickness": 3.7000000476837,
      "SmallestImagePixelValue": 0,
      "SoftwareVersions": "syngo MR B17",
      "SpacingBetweenSlices": 3.7000006467877,
      "SpecificCharacterSet": "ISO_IR 100",
      "StudyID": "1",
      "StudyTime": "133813.875000",
      "TransmitCoilName": "Body",
      "VariableFlipAngleFlag": "N",
      "WindowCenterWidthExplanation": "Algo1",
      "dBdt": 0.0},
    "slices": {}
  },
  "time": {
    "samples": {
      "AcquisitionNumber": [1, 2, 3, 4, 5, 6, 7, 8, 9, 10, 11, 12, 13, 14, 15, 16, 17, 18, 19, 20, 21, 22, 23, 24, 25, 26, 27, 28, 29, 30, 31, 32, 33, 34, 35, 36, 37, 38, 39, 40, 41, 42, 43, 44, 45, 46, 47, 48, 49, 50, 51, 52, 53, 54, 55, 56, 57, 58, 59, 60, 61, 62, 63, 64, 65, 66, 67, 68, 69, 70, 71, 72, 73, 74, 75, 76, 77, 78, 79, 80, 81, 82, 83, 84, 85, 86, 87, 88, 89, 90, 91, 92, 93, 94, 95, 96, 97, 98, 99, 100, 101, 102, 103, 104, 105, 106, 107, 108, 109, 110, 111, 112, 113, 114, 115, 116, 117, 118, 119, 120, 121, 122, 123, 124, 125, 126, 127, 128, 129, 130, 131, 132, 133, 134, 135, 136, 137, 138, 139, 140, 141, 142, 143, 144, 145, 146, 147, 148, 149, 150, 151, 152, 153, 154, 155, 156, 157, 158, 159, 160, 161, 162, 163, 164, 165, 166, 167, 168, 169, 170, 171, 172, 173, 174, 175, 176, 177, 178, 179, 180, 181, 182, 183, 184, 185, 186, 187, 188, 189, 190, 191, 192, 193, 194, 195, 196, 197, 198, 199, 200, 201, 202, 203, 204, 205, 206, 207, 208, 209, 210, 211, 212, 213, 214, 215, 216, 217, 218, 219, 220, 221, 222, 223, 224, 225, 226, 227, 228, 229, 230, 231, 232, 233, 234, 235, 236, 237, 238, 239, 240, 241, 242, 243, 244, 245, 246, 247, 248, 249, 250, 251, 252, 253, 254, 255, 256, 257, 258, 259, 260, 261, 262, 263, 264, 265, 266, 267, 268, 269, 270, 271, 272, 273, 274, 275, 276, 277, 278, 279, 280, 281, 282, 283, 284, 285, 286, 287, 288, 289, 290, 291, 292, 293, 294, 295, 296, 297, 298, 299, 300, 301, 302, 303, 304, 305, 306, 307, 308, 309, 310, 311, 312, 313, 314, 315, 316, 317, 318, 319, 320, 321, 322, 323, 324, 325, 326, 327, 328, 329, 330, 331, 332, 333, 334, 335, 336, 337, 338, 339, 340, 341, 342, 343, 344, 345, 346, 347, 348, 349, 350, 351, 352, 353, 354, 355, 356, 357, 358, 359, 360, 361, 362, 363, 364, 365, 366, 367, 368, 369, 370, 371, 372, 373, 374, 375, 376, 377, 378, 379, 380, 381, 382, 383, 384, 385, 386, 387, 388, 389, 390, 391, 392, 393, 394, 395, 396, 397, 398, 399, 400, 401, 402, 403, 404, 405, 406, 407, 408, 409, 410, 411, 412, 413, 414, 415, 416, 417, 418, 419, 420, 421, 422, 423, 424, 425, 426, 427, 428, 429, 430, 431, 432, 433, 434, 435, 436, 437, 438, 439, 440, 441, 442, 443, 444, 445, 446, 447, 448, 449, 450, 451, 452, 453, 454],
      "AcquisitionTime": ["142732.297500", "142734.305000", "142736.315000", "142738.322500", "142740.330000", "142742.337500", "142744.347500", "142746.355000", "142748.362500", "142750.370000", "142752.377500", "142754.387500", "142756.395000", "142758.402500", "142800.410000", "142802.417500", "142804.427500", "142806.435000", "142808.442500", "142810.450000", "142812.460000", "142814.467500", "142816.475000", "142818.482500", "142820.490000", "142822.500000", "142824.507500", "142826.515000", "142828.522500", "142830.530000", "142832.540000", "142834.547500", "142836.555000", "142838.562500", "142840.572500", "142842.580000", "142844.587500", "142846.595000", "142848.602500", "142850.612500", "142852.620000", "142854.627500", "142856.635000", "142858.642500", "142900.652500", "142902.660000", "142904.667500", "142906.675000", "142908.682500", "142910.692500", "142912.700000", "142914.707500", "142916.715000", "142918.725000", "142920.732500", "142922.740000", "142924.747500", "142926.755000", "142928.765000", "142930.772500", "142932.780000", "142934.787500", "142936.795000", "142938.805000", "142940.812500", "142942.820000", "142944.827500", "142946.837500", "142948.845000", "142950.852500", "142952.860000", "142954.867500", "142956.877500", "142958.885000", "143000.892500", "143002.900000", "143004.907500", "143006.917500", "143008.925000", "143010.932500", "143012.940000", "143014.950000", "143016.957500", "143018.965000", "143020.972500", "143022.980000", "143024.990000", "143026.997500", "143029.005000", "143031.012500", "143033.020000", "143035.030000", "143037.037500", "143039.045000", "143041.052500", "143043.060000", "143045.070000", "143047.077500", "143049.085000", "143051.092500", "143053.102500", "143055.110000", "143057.117500", "143059.125000", "143101.132500", "143103.142500", "143105.150000", "143107.157500", "143109.165000", "143111.172500", "143113.182500", "143115.190000", "143117.197500", "143119.205000", "143121.215000", "143123.222500", "143125.230000", "143127.237500", "143129.245000", "143131.255000", "143133.262500", "143135.270000", "143137.277500", "143139.285000", "143141.295000", "143143.302500", "143145.310000", "143147.317500", "143149.327500", "143151.335000", "143153.342500", "143155.350000", "143157.357500", "143159.367500", "143201.375000", "143203.382500", "143205.390000", "143207.397500", "143209.407500", "143211.415000", "143213.422500", "143215.430000", "143217.437500", "143219.447500", "143221.455000", "143223.462500", "143225.470000", "143227.480000", "143229.487500", "143231.495000", "143233.502500", "143235.510000", "143237.520000", "143239.527500", "143241.535000", "143243.542500", "143245.550000", "143247.560000", "143249.567500", "143251.575000", "143253.582500", "143255.592500", "143257.600000", "143259.607500", "143301.615000", "143303.622500", "143305.632500", "143307.640000", "143309.647500", "143311.655000", "143313.662500", "143315.672500", "143317.680000", "143319.687500", "143321.695000", "143323.705000", "143325.712500", "143327.720000", "143329.727500", "143331.735000", "143333.745000", "143335.752500", "143337.760000", "143339.767500", "143341.775000", "143343.785000", "143345.792500", "143347.800000", "143349.807500", "143351.815000", "143353.825000", "143355.832500", "143357.840000", "143359.847500", "143401.857500", "143403.865000", "143405.872500", "143407.880000", "143409.887500", "143411.897500", "143413.905000", "143415.912500", "143417.920000", "143419.927500", "143421.937500", "143423.945000", "143425.952500", "143427.960000", "143429.970000", "143431.977500", "143433.985000", "143435.992500", "143438.000000", "143440.010000", "143442.017500", "143444.025000", "143446.032500", "143448.040000", "143450.050000", "143452.057500", "143454.065000", "143456.072500", "143458.082500", "143500.090000", "143502.097500", "143504.105000", "143506.112500", "143508.122500", "143510.130000", "143512.137500", "143514.145000", "143516.152500", "143518.162500", "143520.170000", "143522.177500", "143524.185000", "143526.195000", "143528.202500", "143530.210000", "143532.217500", "143534.225000", "143536.235000", "143538.242500", "143540.250000", "143542.257500", "143544.265000", "143546.275000", "143548.282500", "143550.290000", "143552.297500", "143554.305000", "143556.315000", "143558.322500", "143600.330000", "143602.337500", "143604.347500", "143606.355000", "143608.362500", "143610.370000", "143612.377500", "143614.387500", "143616.395000", "143618.402500", "143620.410000", "143622.417500", "143624.427500", "143626.435000", "143628.442500", "143630.450000", "143632.460000", "143634.467500", "143636.475000", "143638.482500", "143640.490000", "143642.500000", "143644.507500", "143646.515000", "143648.522500", "143650.530000", "143652.540000", "143654.547500", "143656.555000", "143658.562500", "143700.572500", "143702.580000", "143704.587500", "143706.595000", "143708.602500", "143710.612500", "143712.620000", "143714.627500", "143716.635000", "143718.642500", "143720.652500", "143722.660000", "143724.667500", "143726.675000", "143728.682500", "143730.692500", "143732.700000", "143734.707500", "143736.715000", "143738.725000", "143740.732500", "143742.740000", "143744.747500", "143746.755000", "143748.765000", "143750.772500", "143752.780000", "143754.787500", "143756.795000", "143758.805000", "143800.812500", "143802.820000", "143804.827500", "143806.837500", "143808.845000", "143810.852500", "143812.860000", "143814.867500", "143816.877500", "143818.885000", "143820.892500", "143822.900000", "143824.907500", "143826.917500", "143828.925000", "143830.932500", "143832.940000", "143834.950000", "143836.957500", "143838.965000", "143840.972500", "143842.980000", "143844.990000", "143846.997500", "143849.005000", "143851.012500", "143853.020000", "143855.030000", "143857.037500", "143859.045000", "143901.052500", "143903.060000", "143905.070000", "143907.077500", "143909.085000", "143911.092500", "143913.102500", "143915.110000", "143917.117500", "143919.125000", "143921.132500", "143923.142500", "143925.150000", "143927.157500", "143929.165000", "143931.172500", "143933.182500", "143935.190000", "143937.197500", "143939.205000", "143941.215000", "143943.222500", "143945.230000", "143947.237500", "143949.245000", "143951.255000", "143953.262500", "143955.270000", "143957.277500", "143959.285000", "144001.295000", "144003.302500", "144005.310000", "144007.317500", "144009.327500", "144011.335000", "144013.342500", "144015.350000", "144017.357500", "144019.367500", "144021.375000", "144023.382500", "144025.390000", "144027.397500", "144029.407500", "144031.415000", "144033.422500", "144035.430000", "144037.437500", "144039.447500", "144041.455000", "144043.462500", "144045.470000", "144047.480000", "144049.487500", "144051.495000", "144053.502500", "144055.510000", "144057.520000", "144059.527500", "144101.535000", "144103.542500", "144105.550000", "144107.560000", "144109.567500", "144111.575000", "144113.582500", "144115.592500", "144117.600000", "144119.607500", "144121.615000", "144123.622500", "144125.632500", "144127.640000", "144129.647500", "144131.655000", "144133.662500", "144135.672500", "144137.680000", "144139.687500", "144141.695000", "144143.705000", "144145.712500", "144147.720000", "144149.727500", "144151.735000", "144153.745000", "144155.752500", "144157.760000", "144159.767500", "144201.775000", "144203.785000", "144205.792500", "144207.800000", "144209.807500", "144211.815000", "144213.825000", "144215.832500", "144217.840000", "144219.847500", "144221.857500", "144223.865000", "144225.872500", "144227.880000", "144229.887500", "144231.897500", "144233.905000", "144235.912500", "144237.920000", "144239.927500", "144241.937500"],
      "ContentTime": ["142823.062000", "142823.062000", "142823.062000", "142823.062000", "142823.062000", "142823.062000", "142823.078000", "142823.078000", "142823.078000", "142823.078000", "142823.078000", "142823.078000", "142823.078000", "142823.093000", "142823.093000", "142823.093000", "142823.093000", "142823.093000", "142823.093000", "142823.109000", "142823.109000", "142823.109000", "142823.109000", "142823.109000", "142823.109000", "142903.046000", "142903.046000", "142903.046000", "142903.046000", "142903.046000", "142903.062000", "142903.062000", "142903.062000", "142903.062000", "142903.062000", "142903.062000", "142903.078000", "142903.078000", "142903.078000", "142903.078000", "142903.078000", "142903.093000", "142903.093000", "142903.093000", "142903.093000", "142943.046000", "142943.046000", "142943.046000", "142943.046000", "142943.046000", "142943.062000", "142943.062000", "142943.062000", "142943.062000", "142943.062000", "142943.062000", "142943.078000", "142943.078000", "142943.078000", "142943.078000", "142943.078000", "142943.078000", "142943.093000", "142943.093000", "142943.093000", "143023.046000", "143023.046000", "143023.046000", "143023.046000", "143023.062000", "143023.062000", "143023.062000", "143023.062000", "143023.062000", "143023.062000", "143023.062000", "143023.078000", "143023.078000", "143023.078000", "143023.078000", "143023.078000", "143023.078000", "143023.078000", "143023.093000", "143023.093000", "143103.046000", "143103.046000", "143103.046000", "143103.046000", "143103.062000", "143103.062000", "143103.062000", "143103.062000", "143103.062000", "143103.062000", "143103.062000", "143103.078000", "143103.078000", "143103.078000", "143103.078000", "143103.078000", "143103.078000", "143103.078000", "143103.093000", "143103.093000", "143123.046000", "143123.046000", "143123.046000", "143123.046000", "143123.062000", "143123.062000", "143123.062000", "143123.062000", "143123.062000", "143123.062000", "143203.046000", "143203.046000", "143203.046000", "143203.046000", "143203.062000", "143203.062000", "143203.062000", "143203.062000", "143203.062000", "143203.062000", "143203.062000", "143203.078000", "143203.078000", "143203.078000", "143203.078000", "143203.093000", "143203.093000", "143203.093000", "143203.093000", "143203.093000", "143243.046000", "143243.046000", "143243.046000", "143243.046000", "143243.062000", "143243.062000", "143243.062000", "143243.062000", "143243.062000", "143243.062000", "143243.062000", "143243.078000", "143243.078000", "143243.078000", "143243.078000", "143243.078000", "143243.078000", "143243.078000", "143243.078000", "143243.093000", "143323.046000", "143323.046000", "143323.046000", "143323.062000", "143323.078000", "143323.078000", "143323.078000", "143323.078000", "143323.078000", "143323.078000", "143323.078000", "143323.093000", "143323.093000", "143323.093000", "143323.093000", "143323.093000", "143323.093000", "143323.093000", "143323.093000", "143323.109000", "143403.046000", "143403.046000", "143403.046000", "143403.046000", "143403.062000", "143403.062000", "143403.062000", "143403.062000", "143403.078000", "143403.078000", "143403.078000", "143403.078000", "143403.078000", "143403.078000", "143403.078000", "143403.093000", "143403.093000", "143403.093000", "143403.093000", "143403.093000", "143443.046000", "143443.062000", "143443.062000", "143443.062000", "143443.062000", "143443.062000", "143443.062000", "143443.062000", "143443.078000", "143443.078000", "143443.078000", "143443.078000", "143443.078000", "143443.078000", "143443.078000", "143443.093000", "143443.093000", "143443.093000", "143443.093000", "143443.093000", "143523.046000", "143523.062000", "143523.062000", "143523.062000", "143523.062000", "143523.062000", "143523.062000", "143523.062000", "143523.078000", "143523.078000", "143523.078000", "143523.093000", "143523.093000", "143523.093000", "143523.093000", "143523.093000", "143523.093000", "143523.093000", "143523.109000", "143523.109000", "143603.046000", "143603.046000", "143603.046000", "143603.046000", "143603.062000", "143603.062000", "143603.062000", "143603.062000", "143603.078000", "143603.078000", "143603.078000", "143603.078000", "143603.078000", "143603.078000", "143603.078000", "143603.093000", "143603.093000", "143603.093000", "143603.093000", "143603.093000", "143643.046000", "143643.046000", "143643.062000", "143643.062000", "143643.062000", "143643.062000", "143643.062000", "143643.062000", "143643.062000", "143643.078000", "143643.078000", "143643.078000", "143643.078000", "143643.078000", "143643.078000", "143643.093000", "143643.093000", "143643.093000", "143643.093000", "143643.093000", "143723.046000", "143723.046000", "143723.046000", "143723.046000", "143723.062000", "143723.062000", "143723.062000", "143723.078000", "143723.078000", "143723.078000", "143723.078000", "143723.078000", "143723.078000", "143723.078000", "143723.093000", "143723.093000", "143723.093000", "143723.093000", "143723.093000", "143723.093000", "143803.046000", "143803.046000", "143803.046000", "143803.046000", "143803.046000", "143803.062000", "143803.062000", "143803.062000", "143803.062000", "143803.062000", "143803.062000", "143803.062000", "143803.078000", "143803.078000", "143803.078000", "143803.078000", "143803.078000", "143803.078000", "143803.078000", "143803.093000", "143843.046000", "143843.046000", "143843.046000", "143843.046000", "143843.062000", "143843.062000", "143843.062000", "143843.062000", "143843.062000", "143843.062000", "143843.062000", "143843.078000", "143843.078000", "143843.078000", "143843.078000", "143843.078000", "143843.078000", "143843.078000", "143843.078000", "143843.093000", "143923.046000", "143923.046000", "143923.046000", "143923.046000", "143923.062000", "143923.062000", "143923.062000", "143923.062000", "143923.062000", "143923.062000", "143923.062000", "143923.078000", "143923.078000", "143923.078000", "143923.078000", "143923.078000", "143923.093000", "143923.093000", "143923.093000", "143923.093000", "144003.046000", "144003.046000", "144003.046000", "144003.046000", "144003.062000", "144003.062000", "144003.062000", "144003.062000", "144003.078000", "144003.078000", "144003.078000", "144003.078000", "144003.078000", "144003.078000", "144003.078000", "144003.093000", "144003.093000", "144003.093000", "144003.093000", "144003.093000", "144043.046000", "144043.046000", "144043.046000", "144043.046000", "144043.062000", "144043.062000", "144043.062000", "144043.062000", "144043.062000", "144043.062000", "144043.062000", "144043.078000", "144043.078000", "144043.078000", "144043.078000", "144043.078000", "144043.078000", "144043.078000", "144043.093000", "144043.093000", "144123.046000", "144123.046000", "144123.062000", "144123.062000", "144123.062000", "144123.062000", "144123.062000", "144123.062000", "144123.078000", "144123.078000", "144123.078000", "144123.078000", "144123.078000", "144123.078000", "144123.093000", "144123.093000", "144123.093000", "144123.093000", "144123.093000", "144123.093000", "144203.046000", "144203.046000", "144203.046000", "144203.046000", "144203.062000", "144203.062000", "144203.062000", "144203.062000", "144203.062000", "144203.062000", "144203.062000", "144203.078000", "144203.078000", "144203.078000", "144203.078000", "144203.078000", "144203.078000", "144203.078000", "144203.093000", "144203.093000", "144241.578000", "144241.593000", "144241.593000", "144241.593000", "144241.593000", "144241.593000", "144241.593000", "144241.593000", "144241.609000", "144241.609000", "144241.609000", "144241.609000", "144241.625000", "144241.625000", "144241.625000", "144241.625000", "144241.625000", "144241.640000", "144241.640000"],
