{
  "AcquisitionMatrixPE": 72,
  "AcquisitionNumber": 1,
  "AcquisitionTime": "19:09:38.740000",
  "BandwidthPerPixelPhaseEncode": 28.935,
  "BaseResolution": 72,
  "CoilString": "C:HEA;HEP",
  "ConversionSoftware": "dcm2niix",
  "ConversionSoftwareVersion": "v1.0.20190410  GCC6.3.0",
  "DerivedVendorReportedEchoSpacing": 0.000480003,
  "DeviceSerialNumber": "35149",
  "DwellTime": 2.9e-06,
  "EchoTime": 0.025,
  "EffectiveEchoSpacing": 0.000480003,
  "FlipAngle": 75,
  "ImageOrientationPatientDICOM": [0.9964, -0.0209226, -0.082152, -0.0290303, 0.826264, -0.562535],
  "ImageType": [
    "ORIGINAL",
    "PRIMARY",
    "M",
    "ND",
    "MOSAIC"
],
  "ImagingFrequency": 123.254,
  "InPlanePhaseEncodingDirectionDICOM": "COL",
  "InstitutionAddress": "Street_StreetNo_Rehovot_91E162_District_IL_ZIP",
  "InstitutionName": "Weizmann",
  "InstitutionalDepartmentName": "Department",
  "MRAcquisitionType": "2D",
  "MagneticFieldStrength": 3,
  "Manufacturer": "Siemens",
  "ManufacturersModelName": "TrioTim",
  "Modality": "MR",
  "PartialFourier": 1,
  "PatientPosition": "HFS",
  "PercentPhaseFOV": 100,
  "PhaseEncodingDirection": "j-",
  "PhaseEncodingSteps": 72,
  "PhaseResolution": 1,
  "PixelBandwidth": 2395,
  "ProcedureStepDescription": "Weizmann_Sobel",
  "ProtocolName": "exp1_30_to_AC-PC",
  "PulseSequenceDetails": "%SiemensSeq%_ep2d_pace",
  "ReceiveCoilName": "HeadMatrix",
  "ReconMatrixPE": 72,
  "RepetitionTime": 2,
  "SAR": 0.151174,
  "ScanOptions": "FS",
  "ScanningSequence": "EP",
  "SequenceName": "_epfid2d1_72",
  "SequenceVariant": "SK",
  "SeriesDescription": "exp1_30_to_AC-PC",
  "SeriesNumber": 3,
  "ShimSetting": [2253, 9545, -5365, 590, 211, -858, 190, 345],
  "SliceThickness": 3.7,
  "SliceTiming": [0.995, 0, 1.0525, 0.06, 1.11, 0.1175, 1.17, 0.175, 1.2275, 0.235, 1.2875, 0.2925, 1.345, 0.35, 1.4025, 0.41, 1.4625, 0.4675, 1.52, 0.5275, 1.58, 0.585, 1.6375, 0.6425, 1.695, 0.7025, 1.755, 0.76, 1.8125, 0.82, 1.87, 0.8775, 1.93, 0.935],
  "SoftwareVersions": "syngo_MR_B17",
  "SpacingBetweenSlices": 3.7,
  "StationName": "MRC35149",
  "TaskName": "bodyodor",
  "TotalReadoutTime": 0.0340802,
  "TxRefAmp": 288.339,
  "VendorReportedEchoSpacing": 0.00048,
  "dcmmeta_affine": [
    [-2.9892005920410156, -0.0870908573269844, -0.29470115900039673, 110.7700424194336],
    [0.06276781111955643, 2.4787917137145996, -2.082709550857544, -43.92654800415039],
    [-0.24645614624023438, 1.6876039505004883, 3.0439236164093018, -76.552001953125],
    [0.0, 0.0, 0.0, 1.0]
],
  "dcmmeta_reorient_transform": [
    [0.0, -1.0, 0.0, 71.0],
    [1.0, 0.0, 0.0, 0.0],
    [0.0, 0.0, 1.0, 0.0],
    [0.0, 0.0, 0.0, 1.0]
],
  "dcmmeta_shape": [72, 72, 34, 450],
  "dcmmeta_slice_dim": 2,
  "dcmmeta_version": 0.6,
  "global": {
    "const": {
      "AcquisitionMatrix": [72, 0, 0, 72],
      "AngioFlag": "N",
      "BitsAllocated": 16,
      "BitsStored": 12,
      "Columns": 432,
      "EchoNumbers": 1,
      "EchoTime": 25.0,
      "EchoTrainLength": 1,
      "FlipAngle": 75.0,
      "HighBit": 11,
      "ImageOrientationPatient": [0.9964001632968, -0.0209226030122, -0.0821520496719, -0.0290302865719, 0.82626389312954, -0.5625346401529],
      "ImagePositionPatient": [-626.96632247642, -566.95195723505, 391.39868910258],
      "ImageType": [
        "ORIGINAL",
        "PRIMARY",
        "M",
        "ND",
        "MOSAIC"
],
      "ImagedNucleus": "1H",
      "ImagingFrequency": 123.254309,
      "InPlanePhaseEncodingDirection": "COL",
      "MRAcquisitionType": "2D",
      "MagneticFieldStrength": 3.0,
      "Manufacturer": "SIEMENS",
      "ManufacturerModelName": "TrioTim",
      "Modality": "MR",
      "NumberOfAverages": 1.0,
      "NumberOfPhaseEncodingSteps": 72,
      "PercentPhaseFieldOfView": 100.0,
      "PercentSampling": 100.0,
      "PerformedProcedureStepStartTime": "190508.734000",
      "PhotometricInterpretation": "MONOCHROME2",
      "PixelBandwidth": 2395.0,
      "PixelRepresentation": 0,
      "PixelSpacing": [3.0, 3.0],
      "ProtocolName": "exp1_30_to_AC-PC",
      "RepetitionTime": 2000.0,
      "Rows": 432,
      "SAR": 0.15117384368533,
      "SamplesPerPixel": 1,
      "ScanOptions": "FS",
      "ScanningSequence": "EP",
      "SequenceName": "*epfid2d1_72",
      "SequenceVariant": "SK",
      "SeriesDescription": "exp1_30_to_AC-PC",
      "SeriesNumber": 3,
      "SeriesTime": "190956.578000",
      "SliceLocation": -47.074666492527,
      "SliceThickness": 3.7000000476837,
      "SmallestImagePixelValue": 0,
      "SoftwareVersions": "syngo MR B17",
      "SpacingBetweenSlices": 3.6999999468758,
      "SpecificCharacterSet": "ISO_IR 100",
      "StudyID": "1",
      "StudyTime": "190508.687000",
      "TransmitCoilName": "Body",
      "VariableFlipAngleFlag": "N",
      "WindowCenterWidthExplanation": "Algo1",
      "dBdt": 0.0},
    "slices": {}
  },
  "time": {
    "samples": {
      "AcquisitionNumber": [1, 2, 3, 4, 5, 6, 7, 8, 9, 10, 11, 12, 13, 14, 15, 16, 17, 18, 19, 20, 21, 22, 23, 24, 25, 26, 27, 28, 29, 30, 31, 32, 33, 34, 35, 36, 37, 38, 39, 40, 41, 42, 43, 44, 45, 46, 47, 48, 49, 50, 51, 52, 53, 54, 55, 56, 57, 58, 59, 60, 61, 62, 63, 64, 65, 66, 67, 68, 69, 70, 71, 72, 73, 74, 75, 76, 77, 78, 79, 80, 81, 82, 83, 84, 85, 86, 87, 88, 89, 90, 91, 92, 93, 94, 95, 96, 97, 98, 99, 100, 101, 102, 103, 104, 105, 106, 107, 108, 109, 110, 111, 112, 113, 114, 115, 116, 117, 118, 119, 120, 121, 122, 123, 124, 125, 126, 127, 128, 129, 130, 131, 132, 133, 134, 135, 136, 137, 138, 139, 140, 141, 142, 143, 144, 145, 146, 147, 148, 149, 150, 151, 152, 153, 154, 155, 156, 157, 158, 159, 160, 161, 162, 163, 164, 165, 166, 167, 168, 169, 170, 171, 172, 173, 174, 175, 176, 177, 178, 179, 180, 181, 182, 183, 184, 185, 186, 187, 188, 189, 190, 191, 192, 193, 194, 195, 196, 197, 198, 199, 200, 201, 202, 203, 204, 205, 206, 207, 208, 209, 210, 211, 212, 213, 214, 215, 216, 217, 218, 219, 220, 221, 222, 223, 224, 225, 226, 227, 228, 229, 230, 231, 232, 233, 234, 235, 236, 237, 238, 239, 240, 241, 242, 243, 244, 245, 246, 247, 248, 249, 250, 251, 252, 253, 254, 255, 256, 257, 258, 259, 260, 261, 262, 263, 264, 265, 266, 267, 268, 269, 270, 271, 272, 273, 274, 275, 276, 277, 278, 279, 280, 281, 282, 283, 284, 285, 286, 287, 288, 289, 290, 291, 292, 293, 294, 295, 296, 297, 298, 299, 300, 301, 302, 303, 304, 305, 306, 307, 308, 309, 310, 311, 312, 313, 314, 315, 316, 317, 318, 319, 320, 321, 322, 323, 324, 325, 326, 327, 328, 329, 330, 331, 332, 333, 334, 335, 336, 337, 338, 339, 340, 341, 342, 343, 344, 345, 346, 347, 348, 349, 350, 351, 352, 353, 354, 355, 356, 357, 358, 359, 360, 361, 362, 363, 364, 365, 366, 367, 368, 369, 370, 371, 372, 373, 374, 375, 376, 377, 378, 379, 380, 381, 382, 383, 384, 385, 386, 387, 388, 389, 390, 391, 392, 393, 394, 395, 396, 397, 398, 399, 400, 401, 402, 403, 404, 405, 406, 407, 408, 409, 410, 411, 412, 413, 414, 415, 416, 417, 418, 419, 420, 421, 422, 423, 424, 425, 426, 427, 428, 429, 430, 431, 432, 433, 434, 435, 436, 437, 438, 439, 440, 441, 442, 443, 444, 445, 446, 447, 448, 449, 450],
      "AcquisitionTime": ["190938.740000", "190940.747500", "190942.755000", "190944.762500", "190946.772500", "190948.780000", "190950.787500", "190952.795000", "190954.802500", "190956.812500", "190958.820000", "191000.827500", "191002.835000", "191004.842500", "191006.852500", "191008.860000", "191010.867500", "191012.875000", "191014.885000", "191016.892500", "191018.900000", "191020.907500", "191022.915000", "191024.925000", "191026.932500", "191028.940000", "191030.947500", "191032.955000", "191034.965000", "191036.972500", "191038.980000", "191040.987500", "191042.997500", "191045.005000", "191047.012500", "191049.020000", "191051.027500", "191053.037500", "191055.045000", "191057.052500", "191059.060000", "191101.067500", "191103.077500", "191105.085000", "191107.092500", "191109.100000", "191111.107500", "191113.117500", "191115.125000", "191117.132500", "191119.140000", "191121.150000", "191123.157500", "191125.165000", "191127.172500", "191129.180000", "191131.190000", "191133.197500", "191135.205000", "191137.212500", "191139.220000", "191141.230000", "191143.237500", "191145.245000", "191147.252500", "191149.262500", "191151.270000", "191153.277500", "191155.285000", "191157.292500", "191159.302500", "191201.310000", "191203.317500", "191205.325000", "191207.332500", "191209.342500", "191211.350000", "191213.357500", "191215.365000", "191217.375000", "191219.382500", "191221.390000", "191223.397500", "191225.405000", "191227.415000", "191229.422500", "191231.430000", "191233.437500", "191235.445000", "191237.455000", "191239.462500", "191241.470000", "191243.477500", "191245.485000", "191247.495000", "191249.502500", "191251.510000", "191253.517500", "191255.527500", "191257.535000", "191259.542500", "191301.550000", "191303.557500", "191305.567500", "191307.575000", "191309.582500", "191311.590000", "191313.597500", "191315.607500", "191317.615000", "191319.622500", "191321.630000", "191323.640000", "191325.647500", "191327.655000", "191329.662500", "191331.670000", "191333.680000", "191335.687500", "191337.695000", "191339.702500", "191341.710000", "191343.720000", "191345.727500", "191347.735000", "191349.742500", "191351.752500", "191353.760000", "191355.767500", "191357.775000", "191359.782500", "191401.792500", "191403.800000", "191405.807500", "191407.815000", "191409.822500", "191411.832500", "191413.840000", "191415.847500", "191417.855000", "191419.862500", "191421.872500", "191423.880000", "191425.887500", "191427.895000", "191429.905000", "191431.912500", "191433.920000", "191435.927500", "191437.935000", "191439.945000", "191441.952500", "191443.960000", "191445.967500", "191447.975000", "191449.985000", "191451.992500", "191454.000000", "191456.007500", "191458.017500", "191500.025000", "191502.032500", "191504.040000", "191506.047500", "191508.057500", "191510.065000", "191512.072500", "191514.080000", "191516.087500", "191518.097500", "191520.105000", "191522.112500", "191524.120000", "191526.130000", "191528.137500", "191530.145000", "191532.152500", "191534.160000", "191536.170000", "191538.177500", "191540.185000", "191542.192500", "191544.200000", "191546.210000", "191548.217500", "191550.225000", "191552.232500", "191554.240000", "191556.250000", "191558.257500", "191600.265000", "191602.272500", "191604.282500", "191606.290000", "191608.297500", "191610.305000", "191612.312500", "191614.322500", "191616.330000", "191618.337500", "191620.345000", "191622.352500", "191624.362500", "191626.370000", "191628.377500", "191630.385000", "191632.395000", "191634.402500", "191636.410000", "191638.417500", "191640.425000", "191642.435000", "191644.442500", "191646.450000", "191648.457500", "191650.465000", "191652.475000", "191654.482500", "191656.490000", "191658.497500", "191700.507500", "191702.515000", "191704.522500", "191706.530000", "191708.537500", "191710.547500", "191712.555000", "191714.562500", "191716.570000", "191718.577500", "191720.587500", "191722.595000", "191724.602500", "191726.610000", "191728.620000", "191730.627500", "191732.635000", "191734.642500", "191736.650000", "191738.660000", "191740.667500", "191742.675000", "191744.682500", "191746.690000", "191748.700000", "191750.707500", "191752.715000", "191754.722500", "191756.730000", "191758.740000", "191800.747500", "191802.755000", "191804.762500", "191806.772500", "191808.780000", "191810.787500", "191812.795000", "191814.802500", "191816.812500", "191818.820000", "191820.827500", "191822.835000", "191824.842500", "191826.852500", "191828.860000", "191830.867500", "191832.875000", "191834.885000", "191836.892500", "191838.900000", "191840.907500", "191842.915000", "191844.925000", "191846.932500", "191848.940000", "191850.947500", "191852.955000", "191854.965000", "191856.972500", "191858.980000", "191900.987500", "191902.997500", "191905.005000", "191907.012500", "191909.020000", "191911.027500", "191913.037500", "191915.045000", "191917.052500", "191919.060000", "191921.067500", "191923.077500", "191925.085000", "191927.092500", "191929.100000", "191931.107500", "191933.117500", "191935.125000", "191937.132500", "191939.140000", "191941.150000", "191943.157500", "191945.165000", "191947.172500", "191949.180000", "191951.190000", "191953.197500", "191955.205000", "191957.212500", "191959.220000", "192001.230000", "192003.237500", "192005.245000", "192007.252500", "192009.262500", "192011.270000", "192013.277500", "192015.285000", "192017.292500", "192019.302500", "192021.310000", "192023.317500", "192025.325000", "192027.332500", "192029.342500", "192031.350000", "192033.357500", "192035.365000", "192037.375000", "192039.382500", "192041.390000", "192043.397500", "192045.405000", "192047.415000", "192049.422500", "192051.430000", "192053.437500", "192055.445000", "192057.455000", "192059.462500", "192101.470000", "192103.477500", "192105.485000", "192107.495000", "192109.502500", "192111.510000", "192113.517500", "192115.527500", "192117.535000", "192119.542500", "192121.550000", "192123.557500", "192125.567500", "192127.575000", "192129.582500", "192131.590000", "192133.597500", "192135.607500", "192137.615000", "192139.622500", "192141.630000", "192143.640000", "192145.647500", "192147.655000", "192149.662500", "192151.670000", "192153.680000", "192155.687500", "192157.695000", "192159.702500", "192201.710000", "192203.720000", "192205.727500", "192207.735000", "192209.742500", "192211.752500", "192213.760000", "192215.767500", "192217.775000", "192219.782500", "192221.792500", "192223.800000", "192225.807500", "192227.815000", "192229.822500", "192231.832500", "192233.840000", "192235.847500", "192237.855000", "192239.862500", "192241.872500", "192243.880000", "192245.887500", "192247.895000", "192249.905000", "192251.912500", "192253.920000", "192255.927500", "192257.935000", "192259.945000", "192301.952500", "192303.960000", "192305.967500", "192307.975000", "192309.985000", "192311.992500", "192314.000000", "192316.007500", "192318.017500", "192320.025000", "192322.032500", "192324.040000", "192326.047500", "192328.057500", "192330.065000", "192332.072500", "192334.080000", "192336.087500", "192338.097500", "192340.105000", "192342.112500", "192344.120000", "192346.130000", "192348.137500", "192350.145000", "192352.152500", "192354.160000", "192356.170000", "192358.177500", "192400.185000", "192402.192500", "192404.200000", "192406.210000", "192408.217500", "192410.225000", "192412.232500", "192414.240000", "192416.250000", "192418.257500", "192420.265000", "192422.272500", "192424.282500", "192426.290000", "192428.297500", "192430.305000", "192432.312500", "192434.322500", "192436.330000", "192438.337500", "192440.345000"],
      "ContentTime": ["190956.578000", "190956.593000", "190956.593000", "190956.593000", "190956.593000", "190956.593000", "190956.593000", "190956.609000", "191036.578000", "191036.578000", "191036.578000", "191036.578000", "191036.578000", "191036.593000", "191036.593000", "191036.593000", "191036.593000", "191036.609000", "191036.609000", "191036.609000", "191036.609000", "191036.609000", "191036.609000", "191036.609000", "191036.609000", "191036.625000", "191036.625000", "191036.625000", "191116.578000", "191116.578000", "191116.578000", "191116.578000", "191116.593000", "191116.593000", "191116.593000", "191116.593000", "191116.593000", "191116.593000", "191116.593000", "191116.609000", "191116.609000", "191116.609000", "191116.609000", "191116.609000", "191116.625000", "191116.640000", "191116.640000", "191116.640000", "191156.578000", "191156.578000", "191156.578000", "191156.578000", "191156.578000", "191156.593000", "191156.593000", "191156.593000", "191156.593000", "191156.593000", "191156.593000", "191156.593000", "191156.609000", "191156.609000", "191156.609000", "191156.609000", "191156.609000", "191156.609000", "191156.625000", "191156.625000", "191236.578000", "191236.578000", "191236.578000", "191236.578000", "191236.593000", "191236.593000", "191236.593000", "191236.593000", "191236.593000", "191236.593000", "191236.609000", "191236.609000", "191236.609000", "191236.609000", "191236.609000", "191236.625000", "191236.625000", "191236.625000", "191236.625000", "191236.625000", "191316.578000", "191316.578000", "191316.578000", "191316.578000", "191316.578000", "191316.593000", "191316.593000", "191316.593000", "191316.593000", "191316.593000", "191316.593000", "191316.593000", "191316.609000", "191316.609000", "191316.609000", "191316.609000", "191316.609000", "191316.609000", "191316.609000", "191316.625000", "191356.578000", "191356.578000", "191356.578000", "191356.578000", "191356.578000", "191356.593000", "191356.593000", "191356.593000", "191356.593000", "191356.593000", "191356.593000", "191356.593000", "191356.609000", "191356.609000", "191356.609000", "191356.609000", "191356.609000", "191356.609000", "191356.609000", "191356.625000", "191436.578000", "191436.578000", "191436.578000", "191436.578000", "191436.593000", "191436.593000", "191436.593000", "191436.593000", "191436.593000", "191436.609000", "191436.609000", "191436.609000", "191436.609000", "191436.609000", "191436.609000", "191436.609000", "191436.625000", "191436.625000", "191436.625000", "191436.625000", "191516.578000", "191516.578000", "191516.578000", "191516.578000", "191516.593000", "191516.593000", "191516.593000", "191516.593000", "191516.593000", "191516.593000", "191516.593000", "191516.609000", "191516.609000", "191516.609000", "191516.609000", "191516.609000", "191516.609000", "191516.609000", "191516.625000", "191516.625000", "191556.578000", "191556.578000", "191556.578000", "191556.578000", "191556.578000", "191556.593000", "191556.593000", "191556.593000", "191556.593000", "191556.593000", "191556.593000", "191556.609000", "191556.609000", "191556.609000", "191556.609000", "191556.609000", "191556.609000", "191556.609000", "191556.625000", "191556.625000", "191636.578000", "191636.578000", "191636.593000", "191636.593000", "191636.593000", "191636.593000", "191636.593000", "191636.593000", "191636.609000", "191636.609000", "191636.609000", "191636.625000", "191636.625000", "191636.625000", "191636.625000", "191636.625000", "191636.625000", "191636.625000", "191636.640000", "191636.640000", "191716.578000", "191716.578000", "191716.578000", "191716.578000", "191716.578000", "191716.593000", "191716.593000", "191716.593000", "191716.593000", "191716.593000", "191716.593000", "191716.593000", "191716.609000", "191716.609000", "191716.609000", "191716.609000", "191716.625000", "191716.625000", "191716.625000", "191716.625000", "191756.578000", "191756.578000", "191756.578000", "191756.578000", "191756.593000", "191756.593000", "191756.593000", "191756.593000", "191756.609000", "191756.609000", "191756.609000", "191756.609000", "191756.609000", "191756.609000", "191756.609000", "191756.625000", "191756.625000", "191756.625000", "191756.625000", "191756.625000", "191836.578000", "191836.593000", "191836.593000", "191836.593000", "191836.593000", "191836.593000", "191836.593000", "191836.593000", "191836.593000", "191836.609000", "191836.609000", "191836.609000", "191836.609000", "191836.609000", "191836.609000", "191836.609000", "191836.625000", "191836.625000", "191836.625000", "191836.625000", "191916.578000", "191916.578000", "191916.593000", "191916.593000", "191916.593000", "191916.593000", "191916.593000", "191916.609000", "191916.609000", "191916.609000", "191916.609000", "191916.609000", "191916.609000", "191916.625000", "191916.625000", "191916.625000", "191916.625000", "191916.625000", "191916.625000", "191916.625000", "191936.578000", "191936.578000", "191936.578000", "191936.578000", "191936.593000", "191936.593000", "191936.593000", "191936.593000", "191936.593000", "191936.593000", "192016.578000", "192016.578000", "192016.578000", "192016.578000", "192016.578000", "192016.593000", "192016.593000", "192016.593000", "192016.593000", "192016.593000", "192016.593000", "192016.609000", "192016.609000", "192016.609000", "192016.609000", "192016.609000", "192016.609000", "192016.609000", "192016.625000", "192016.625000", "192056.578000", "192056.593000", "192056.593000", "192056.593000", "192056.593000", "192056.593000", "192056.593000", "192056.593000", "192056.609000", "192056.609000", "192056.609000", "192056.609000", "192056.609000", "192056.609000", "192056.609000", "192056.625000", "192056.625000", "192056.625000", "192056.625000", "192056.625000", "192136.578000", "192136.578000", "192136.578000", "192136.578000", "192136.578000", "192136.593000", "192136.593000", "192136.593000", "192136.593000", "192136.593000", "192136.593000", "192136.593000", "192136.609000", "192136.609000", "192136.609000", "192136.609000", "192136.609000", "192136.609000", "192136.609000", "192136.625000", "192216.578000", "192216.578000", "192216.578000", "192216.578000", "192216.578000", "192216.593000", "192216.593000", "192216.593000", "192216.593000", "192216.609000", "192216.609000", "192216.609000", "192216.609000", "192216.609000", "192216.609000", "192216.609000", "192216.625000", "192216.625000", "192216.625000", "192216.625000", "192256.578000", "192256.578000", "192256.593000", "192256.593000", "192256.593000", "192256.593000", "192256.609000", "192256.609000", "192256.609000", "192256.609000", "192256.609000", "192256.625000", "192256.625000", "192256.625000", "192256.640000", "192256.640000", "192256.640000", "192256.640000", "192256.640000", "192256.656000", "192336.578000", "192336.578000", "192336.578000", "192336.578000", "192336.578000", "192336.593000", "192336.593000", "192336.593000", "192336.593000", "192336.593000", "192336.593000", "192336.593000", "192336.609000", "192336.609000", "192336.609000", "192336.609000", "192336.609000", "192336.609000", "192336.609000", "192336.625000", "192416.578000", "192416.578000", "192416.578000", "192416.578000", "192416.593000", "192416.593000", "192416.593000", "192416.593000", "192416.593000", "192416.593000", "192416.593000", "192416.609000", "192416.609000", "192416.609000", "192416.609000", "192416.609000", "192416.609000", "192416.609000", "192416.625000", "192416.625000", "192438.718000", "192438.718000", "192438.718000", "192438.718000", "192438.734000", "192438.734000", "192438.734000", "192438.734000", "192438.734000", "192438.734000", "192438.734000", "192438.750000"],
