{
  "AcquisitionMatrixPE": 72,
  "AcquisitionNumber": 1,
  "AcquisitionTime": "19:32:21.602500",
  "BandwidthPerPixelPhaseEncode": 28.935,
  "BaseResolution": 72,
  "CoilString": "C:HEA;HEP",
  "ConversionSoftware": "dcm2niix",
  "ConversionSoftwareVersion": "v1.0.20190410  GCC6.3.0",
  "DerivedVendorReportedEchoSpacing": 0.000480003,
  "DeviceSerialNumber": "35149",
  "DwellTime": 2.9e-06,
  "EchoTime": 0.025,
  "EffectiveEchoSpacing": 0.000480003,
  "FlipAngle": 75,
  "ImageOrientationPatientDICOM": [0.995883, -0.0259684, -0.0868495, -0.0301749, 0.808481, -0.587748],
  "ImageType": [
    "ORIGINAL",
    "PRIMARY",
    "M",
    "ND",
    "MOSAIC"
],
  "ImagingFrequency": 123.254,
  "InPlanePhaseEncodingDirectionDICOM": "COL",
  "InstitutionAddress": "Street_StreetNo_Rehovot_91E162_District_IL_ZIP",
  "InstitutionName": "Weizmann",
  "InstitutionalDepartmentName": "Department",
  "MRAcquisitionType": "2D",
  "MagneticFieldStrength": 3,
  "Manufacturer": "Siemens",
  "ManufacturersModelName": "TrioTim",
  "Modality": "MR",
  "PartialFourier": 1,
  "PatientPosition": "HFS",
  "PercentPhaseFOV": 100,
  "PhaseEncodingDirection": "j-",
  "PhaseEncodingSteps": 72,
  "PhaseResolution": 1,
  "PixelBandwidth": 2395,
  "ProcedureStepDescription": "Weizmann_Sobel",
  "ProtocolName": "exp1_30_to_AC-PC",
  "PulseSequenceDetails": "%SiemensSeq%_ep2d_pace",
  "ReceiveCoilName": "HeadMatrix",
  "ReconMatrixPE": 72,
  "RepetitionTime": 2,
  "SAR": 0.151174,
  "ScanOptions": "FS",
  "ScanningSequence": "EP",
  "SequenceName": "_epfid2d1_72",
  "SequenceVariant": "SK",
  "SeriesDescription": "exp1_30_to_AC-PC",
  "SeriesNumber": 7,
  "ShimSetting": [2253, 9550, -5361, 601, 208, -834, 172, 340],
  "SliceThickness": 3.7,
  "SliceTiming": [0.9925, 0, 1.0525, 0.0575, 1.11, 0.115, 1.1675, 0.175, 1.2275, 0.2325, 1.285, 0.2925, 1.3425, 0.35, 1.4025, 0.4075, 1.46, 0.4675, 1.52, 0.525, 1.5775, 0.585, 1.635, 0.6425, 1.695, 0.7, 1.7525, 0.76, 1.8125, 0.8175, 1.87, 0.875, 1.9275, 0.935],
  "SoftwareVersions": "syngo_MR_B17",
  "SpacingBetweenSlices": 3.7,
  "StationName": "MRC35149",
  "TaskName": "blank",
  "TotalReadoutTime": 0.0340802,
  "TxRefAmp": 288.339,
  "VendorReportedEchoSpacing": 0.00048,
  "dcmmeta_affine": [
    [-2.9876487255096436, -0.0905245840549469, -0.31627264618873596, 111.05606079101562],
    [0.07790522277355194, 2.4254443645477295, -2.1754090785980225, -43.112579345703125],
    [-0.26054859161376953, 1.7632428407669067, 2.976165771484375, -76.16927337646484],
    [0.0, 0.0, 0.0, 1.0]
],
  "dcmmeta_reorient_transform": [
    [0.0, -1.0, 0.0, 71.0],
    [1.0, 0.0, 0.0, 0.0],
    [0.0, 0.0, 1.0, 0.0],
    [0.0, 0.0, 0.0, 1.0]
],
  "dcmmeta_shape": [72, 72, 34, 450],
  "dcmmeta_slice_dim": 2,
  "dcmmeta_version": 0.6,
  "global": {
    "const": {
      "AcquisitionMatrix": [72, 0, 0, 72],
      "AngioFlag": "N",
      "BitsAllocated": 16,
      "BitsStored": 12,
      "Columns": 432,
      "EchoNumbers": 1,
      "EchoTime": 25.0,
      "EchoTrainLength": 1,
      "FlipAngle": 75.0,
      "HighBit": 11,
      "ImageOrientationPatient": [0.99588292506173, -0.0259684086114, -0.0868495326682, -0.0301748619605, 0.80848142643042, -0.5877476166032],
      "ImagePositionPatient": [-626.11116998788, -551.65099322493, 413.30343102982],
      "ImageType": [
        "ORIGINAL",
        "PRIMARY",
        "M",
        "ND",
        "MOSAIC"
],
      "ImagedNucleus": "1H",
      "ImagingFrequency": 123.254317,
      "InPlanePhaseEncodingDirection": "COL",
      "MRAcquisitionType": "2D",
      "MagneticFieldStrength": 3.0,
      "Manufacturer": "SIEMENS",
      "ManufacturerModelName": "TrioTim",
      "Modality": "MR",
      "NumberOfAverages": 1.0,
      "NumberOfPhaseEncodingSteps": 72,
      "PercentPhaseFieldOfView": 100.0,
      "PercentSampling": 100.0,
      "PerformedProcedureStepStartTime": "190508.734000",
      "PhotometricInterpretation": "MONOCHROME2",
      "PixelBandwidth": 2395.0,
      "PixelRepresentation": 0,
      "PixelSpacing": [3.0, 3.0],
      "ProtocolName": "exp1_30_to_AC-PC",
      "RepetitionTime": 2000.0,
      "Rows": 432,
      "SAR": 0.15117384368533,
      "SamplesPerPixel": 1,
      "ScanOptions": "FS",
      "ScanningSequence": "EP",
      "SequenceName": "*epfid2d1_72",
      "SequenceVariant": "SK",
      "SeriesDescription": "exp1_30_to_AC-PC",
      "SeriesNumber": 7,
      "SeriesTime": "193306.000000",
      "SliceLocation": -45.413216774715,
      "SliceThickness": 3.7000000476837,
      "SmallestImagePixelValue": 0,
      "SoftwareVersions": "syngo MR B17",
      "SpacingBetweenSlices": 3.69999955178,
      "SpecificCharacterSet": "ISO_IR 100",
      "StudyID": "1",
      "StudyTime": "190508.687000",
      "TransmitCoilName": "Body",
      "VariableFlipAngleFlag": "N",
      "WindowCenterWidthExplanation": "Algo1",
      "dBdt": 0.0},
    "slices": {}
  },
  "time": {
    "samples": {
      "AcquisitionNumber": [1, 2, 3, 4, 5, 6, 7, 8, 9, 10, 11, 12, 13, 14, 15, 16, 17, 18, 19, 20, 21, 22, 23, 24, 25, 26, 27, 28, 29, 30, 31, 32, 33, 34, 35, 36, 37, 38, 39, 40, 41, 42, 43, 44, 45, 46, 47, 48, 49, 50, 51, 52, 53, 54, 55, 56, 57, 58, 59, 60, 61, 62, 63, 64, 65, 66, 67, 68, 69, 70, 71, 72, 73, 74, 75, 76, 77, 78, 79, 80, 81, 82, 83, 84, 85, 86, 87, 88, 89, 90, 91, 92, 93, 94, 95, 96, 97, 98, 99, 100, 101, 102, 103, 104, 105, 106, 107, 108, 109, 110, 111, 112, 113, 114, 115, 116, 117, 118, 119, 120, 121, 122, 123, 124, 125, 126, 127, 128, 129, 130, 131, 132, 133, 134, 135, 136, 137, 138, 139, 140, 141, 142, 143, 144, 145, 146, 147, 148, 149, 150, 151, 152, 153, 154, 155, 156, 157, 158, 159, 160, 161, 162, 163, 164, 165, 166, 167, 168, 169, 170, 171, 172, 173, 174, 175, 176, 177, 178, 179, 180, 181, 182, 183, 184, 185, 186, 187, 188, 189, 190, 191, 192, 193, 194, 195, 196, 197, 198, 199, 200, 201, 202, 203, 204, 205, 206, 207, 208, 209, 210, 211, 212, 213, 214, 215, 216, 217, 218, 219, 220, 221, 222, 223, 224, 225, 226, 227, 228, 229, 230, 231, 232, 233, 234, 235, 236, 237, 238, 239, 240, 241, 242, 243, 244, 245, 246, 247, 248, 249, 250, 251, 252, 253, 254, 255, 256, 257, 258, 259, 260, 261, 262, 263, 264, 265, 266, 267, 268, 269, 270, 271, 272, 273, 274, 275, 276, 277, 278, 279, 280, 281, 282, 283, 284, 285, 286, 287, 288, 289, 290, 291, 292, 293, 294, 295, 296, 297, 298, 299, 300, 301, 302, 303, 304, 305, 306, 307, 308, 309, 310, 311, 312, 313, 314, 315, 316, 317, 318, 319, 320, 321, 322, 323, 324, 325, 326, 327, 328, 329, 330, 331, 332, 333, 334, 335, 336, 337, 338, 339, 340, 341, 342, 343, 344, 345, 346, 347, 348, 349, 350, 351, 352, 353, 354, 355, 356, 357, 358, 359, 360, 361, 362, 363, 364, 365, 366, 367, 368, 369, 370, 371, 372, 373, 374, 375, 376, 377, 378, 379, 380, 381, 382, 383, 384, 385, 386, 387, 388, 389, 390, 391, 392, 393, 394, 395, 396, 397, 398, 399, 400, 401, 402, 403, 404, 405, 406, 407, 408, 409, 410, 411, 412, 413, 414, 415, 416, 417, 418, 419, 420, 421, 422, 423, 424, 425, 426, 427, 428, 429, 430, 431, 432, 433, 434, 435, 436, 437, 438, 439, 440, 441, 442, 443, 444, 445, 446, 447, 448, 449, 450],
      "AcquisitionTime": ["193221.602500", "193223.610000", "193225.620000", "193227.627500", "193229.635000", "193231.642500", "193233.650000", "193235.660000", "193237.667500", "193239.675000", "193241.682500", "193243.692500", "193245.700000", "193247.707500", "193249.715000", "193251.722500", "193253.732500", "193255.740000", "193257.747500", "193259.755000", "193301.762500", "193303.772500", "193305.780000", "193307.787500", "193309.795000", "193311.802500", "193313.812500", "193315.820000", "193317.827500", "193319.835000", "193321.845000", "193323.852500", "193325.860000", "193327.867500", "193329.875000", "193331.885000", "193333.892500", "193335.900000", "193337.907500", "193339.915000", "193341.925000", "193343.932500", "193345.940000", "193347.947500", "193349.957500", "193351.965000", "193353.972500", "193355.980000", "193357.987500", "193359.997500", "193402.005000", "193404.012500", "193406.020000", "193408.027500", "193410.037500", "193412.045000", "193414.052500", "193416.060000", "193418.070000", "193420.077500", "193422.085000", "193424.092500", "193426.100000", "193428.110000", "193430.117500", "193432.125000", "193434.132500", "193436.140000", "193438.150000", "193440.157500", "193442.165000", "193444.172500", "193446.180000", "193448.190000", "193450.197500", "193452.205000", "193454.212500", "193456.222500", "193458.230000", "193500.237500", "193502.245000", "193504.252500", "193506.262500", "193508.270000", "193510.277500", "193512.285000", "193514.292500", "193516.302500", "193518.310000", "193520.317500", "193522.325000", "193524.335000", "193526.342500", "193528.350000", "193530.357500", "193532.365000", "193534.375000", "193536.382500", "193538.390000", "193540.397500", "193542.405000", "193544.415000", "193546.422500", "193548.430000", "193550.437500", "193552.447500", "193554.455000", "193556.462500", "193558.470000", "193600.477500", "193602.487500", "193604.495000", "193606.502500", "193608.510000", "193610.517500", "193612.527500", "193614.535000", "193616.542500", "193618.550000", "193620.560000", "193622.567500", "193624.575000", "193626.582500", "193628.590000", "193630.600000", "193632.607500", "193634.615000", "193636.622500", "193638.630000", "193640.640000", "193642.647500", "193644.655000", "193646.662500", "193648.670000", "193650.680000", "193652.687500", "193654.695000", "193656.702500", "193658.712500", "193700.720000", "193702.727500", "193704.735000", "193706.742500", "193708.752500", "193710.760000", "193712.767500", "193714.775000", "193716.782500", "193718.792500", "193720.800000", "193722.807500", "193724.815000", "193726.825000", "193728.832500", "193730.840000", "193732.847500", "193734.855000", "193736.865000", "193738.872500", "193740.880000", "193742.887500", "193744.895000", "193746.905000", "193748.912500", "193750.920000", "193752.927500", "193754.937500", "193756.945000", "193758.952500", "193800.960000", "193802.967500", "193804.977500", "193806.985000", "193808.992500", "193811.000000", "193813.007500", "193815.017500", "193817.025000", "193819.032500", "193821.040000", "193823.047500", "193825.057500", "193827.065000", "193829.072500", "193831.080000", "193833.090000", "193835.097500", "193837.105000", "193839.112500", "193841.120000", "193843.130000", "193845.137500", "193847.145000", "193849.152500", "193851.160000", "193853.170000", "193855.177500", "193857.185000", "193859.192500", "193901.202500", "193903.210000", "193905.217500", "193907.225000", "193909.232500", "193911.242500", "193913.250000", "193915.257500", "193917.265000", "193919.272500", "193921.282500", "193923.290000", "193925.297500", "193927.305000", "193929.315000", "193931.322500", "193933.330000", "193935.337500", "193937.345000", "193939.355000", "193941.362500", "193943.370000", "193945.377500", "193947.385000", "193949.395000", "193951.402500", "193953.410000", "193955.417500", "193957.425000", "193959.435000", "194001.442500", "194003.450000", "194005.457500", "194007.467500", "194009.475000", "194011.482500", "194013.490000", "194015.497500", "194017.507500", "194019.515000", "194021.522500", "194023.530000", "194025.537500", "194027.547500", "194029.555000", "194031.562500", "194033.570000", "194035.580000", "194037.587500", "194039.595000", "194041.602500", "194043.610000", "194045.620000", "194047.627500", "194049.635000", "194051.642500", "194053.650000", "194055.660000", "194057.667500", "194059.675000", "194101.682500", "194103.692500", "194105.700000", "194107.707500", "194109.715000", "194111.722500", "194113.732500", "194115.740000", "194117.747500", "194119.755000", "194121.762500", "194123.772500", "194125.780000", "194127.787500", "194129.795000", "194131.802500", "194133.812500", "194135.820000", "194137.827500", "194139.835000", "194141.845000", "194143.852500", "194145.860000", "194147.867500", "194149.875000", "194151.885000", "194153.892500", "194155.900000", "194157.907500", "194159.915000", "194201.925000", "194203.932500", "194205.940000", "194207.947500", "194209.957500", "194211.965000", "194213.972500", "194215.980000", "194217.987500", "194219.997500", "194222.005000", "194224.012500", "194226.020000", "194228.027500", "194230.037500", "194232.045000", "194234.052500", "194236.060000", "194238.070000", "194240.077500", "194242.085000", "194244.092500", "194246.100000", "194248.110000", "194250.117500", "194252.125000", "194254.132500", "194256.140000", "194258.150000", "194300.157500", "194302.165000", "194304.172500", "194306.180000", "194308.190000", "194310.197500", "194312.205000", "194314.212500", "194316.222500", "194318.230000", "194320.237500", "194322.245000", "194324.252500", "194326.262500", "194328.270000", "194330.277500", "194332.285000", "194334.292500", "194336.302500", "194338.310000", "194340.317500", "194342.325000", "194344.335000", "194346.342500", "194348.350000", "194350.357500", "194352.365000", "194354.375000", "194356.382500", "194358.390000", "194400.397500", "194402.405000", "194404.415000", "194406.422500", "194408.430000", "194410.437500", "194412.447500", "194414.455000", "194416.462500", "194418.470000", "194420.477500", "194422.487500", "194424.495000", "194426.502500", "194428.510000", "194430.517500", "194432.527500", "194434.535000", "194436.542500", "194438.550000", "194440.560000", "194442.567500", "194444.575000", "194446.582500", "194448.590000", "194450.600000", "194452.607500", "194454.615000", "194456.622500", "194458.630000", "194500.640000", "194502.647500", "194504.655000", "194506.662500", "194508.670000", "194510.680000", "194512.687500", "194514.695000", "194516.702500", "194518.712500", "194520.720000", "194522.727500", "194524.735000", "194526.742500", "194528.752500", "194530.760000", "194532.767500", "194534.775000", "194536.782500", "194538.792500", "194540.800000", "194542.807500", "194544.815000", "194546.825000", "194548.832500", "194550.840000", "194552.847500", "194554.855000", "194556.865000", "194558.872500", "194600.880000", "194602.887500", "194604.895000", "194606.905000", "194608.912500", "194610.920000", "194612.927500", "194614.937500", "194616.945000", "194618.952500", "194620.960000", "194622.967500", "194624.977500", "194626.985000", "194628.992500", "194631.000000", "194633.007500", "194635.017500", "194637.025000", "194639.032500", "194641.040000", "194643.047500", "194645.057500", "194647.065000", "194649.072500", "194651.080000", "194653.090000", "194655.097500", "194657.105000", "194659.112500", "194701.120000", "194703.130000", "194705.137500", "194707.145000", "194709.152500", "194711.160000", "194713.170000", "194715.177500", "194717.185000", "194719.192500", "194721.202500", "194723.210000"],
      "ContentTime": ["193306.015000", "193306.015000", "193306.031000", "193306.031000", "193306.031000", "193306.031000", "193306.031000", "193306.031000", "193306.031000", "193306.046000", "193306.046000", "193306.046000", "193306.046000", "193306.046000", "193306.046000", "193306.046000", "193306.062000", "193306.062000", "193306.062000", "193306.062000", "193306.062000", "193306.062000", "193346.000000", "193346.000000", "193346.000000", "193346.000000", "193346.015000", "193346.015000", "193346.015000", "193346.015000", "193346.015000", "193346.015000", "193346.031000", "193346.031000", "193346.031000", "193346.031000", "193346.031000", "193346.031000", "193346.031000", "193346.046000", "193346.046000", "193346.046000", "193426.000000", "193426.000000", "193426.000000", "193426.015000", "193426.015000", "193426.015000", "193426.015000", "193426.015000", "193426.015000", "193426.015000", "193426.031000", "193426.031000", "193426.031000", "193426.031000", "193426.031000", "193426.031000", "193426.031000", "193426.046000", "193426.046000", "193426.046000", "193506.000000", "193506.000000", "193506.000000", "193506.015000", "193506.015000", "193506.015000", "193506.015000", "193506.015000", "193506.015000", "193506.015000", "193506.031000", "193506.031000", "193506.031000", "193506.031000", "193506.031000", "193506.031000", "193506.046000", "193506.046000", "193506.046000", "193506.046000", "193546.000000", "193546.000000", "193546.000000", "193546.015000", "193546.015000", "193546.015000", "193546.015000", "193546.015000", "193546.015000", "193546.015000", "193546.031000", "193546.031000", "193546.031000", "193546.031000", "193546.031000", "193546.031000", "193546.031000", "193546.031000", "193546.046000", "193546.046000", "193626.000000", "193626.000000", "193626.000000", "193626.015000", "193626.015000", "193626.015000", "193626.015000", "193626.015000", "193626.015000", "193626.015000", "193626.031000", "193626.031000", "193626.031000", "193626.031000", "193626.031000", "193626.031000", "193626.031000", "193626.046000", "193626.046000", "193626.046000", "193706.000000", "193706.000000", "193706.000000", "193706.015000", "193706.015000", "193706.015000", "193706.015000", "193706.015000", "193706.015000", "193706.015000", "193706.031000", "193706.031000", "193706.031000", "193706.031000", "193706.031000", "193706.031000", "193706.031000", "193706.046000", "193706.046000", "193706.046000", "193746.000000", "193746.000000", "193746.000000", "193746.015000", "193746.015000", "193746.015000", "193746.015000", "193746.015000", "193746.015000", "193746.015000", "193746.031000", "193746.031000", "193746.031000", "193746.031000", "193746.031000", "193746.031000", "193746.031000", "193746.031000", "193746.046000", "193746.046000", "193826.000000", "193826.015000", "193826.031000", "193826.031000", "193826.031000", "193826.046000", "193826.046000", "193826.046000", "193826.046000", "193826.046000", "193826.062000", "193826.062000", "193826.062000", "193826.062000", "193826.062000", "193826.062000", "193826.078000", "193826.078000", "193826.078000", "193826.078000", "193906.000000", "193906.015000", "193906.015000", "193906.015000", "193906.015000", "193906.015000", "193906.015000", "193906.015000", "193906.031000", "193906.031000", "193906.031000", "193906.031000", "193906.031000", "193906.031000", "193906.046000", "193906.046000", "193906.046000", "193906.046000", "193906.046000", "193906.046000", "193926.000000", "193926.000000", "193926.015000", "193926.015000", "193926.015000", "193926.015000", "193926.015000", "193926.015000", "193926.015000", "193926.031000", "194006.000000", "194006.000000", "194006.000000", "194006.015000", "194006.015000", "194006.015000", "194006.015000", "194006.015000", "194006.015000", "194006.015000", "194006.031000", "194006.031000", "194006.031000", "194006.031000", "194006.031000", "194006.031000", "194006.046000", "194006.046000", "194006.046000", "194006.046000", "194046.000000", "194046.000000", "194046.000000", "194046.015000", "194046.015000", "194046.015000", "194046.015000", "194046.015000", "194046.031000", "194046.031000", "194046.031000", "194046.031000", "194046.031000", "194046.031000", "194046.031000", "194046.046000", "194046.046000", "194046.046000", "194046.046000", "194046.046000", "194126.000000", "194126.000000", "194126.000000", "194126.015000", "194126.015000", "194126.015000", "194126.015000", "194126.015000", "194126.015000", "194126.015000", "194126.031000", "194126.031000", "194126.031000", "194126.031000", "194126.031000", "194126.031000", "194126.046000", "194126.046000", "194126.046000", "194126.046000", "194206.000000", "194206.000000", "194206.000000", "194206.015000", "194206.015000", "194206.015000", "194206.015000", "194206.015000", "194206.015000", "194206.015000", "194206.031000", "194206.031000", "194206.031000", "194206.031000", "194206.031000", "194206.046000", "194206.046000", "194206.046000", "194206.046000", "194206.046000", "194246.000000", "194246.000000", "194246.000000", "194246.015000", "194246.015000", "194246.015000", "194246.015000", "194246.015000", "194246.015000", "194246.015000", "194246.031000", "194246.031000", "194246.031000", "194246.031000", "194246.031000", "194246.031000", "194246.031000", "194246.046000", "194246.046000", "194246.046000", "194326.000000", "194326.000000", "194326.000000", "194326.015000", "194326.015000", "194326.015000", "194326.015000", "194326.015000", "194326.015000", "194326.015000", "194326.031000", "194326.031000", "194326.031000", "194326.031000", "194326.031000", "194326.031000", "194326.031000", "194326.046000", "194326.046000", "194326.046000", "194406.000000", "194406.000000", "194406.000000", "194406.015000", "194406.015000", "194406.015000", "194406.015000", "194406.015000", "194406.015000", "194406.015000", "194406.031000", "194406.031000", "194406.031000", "194406.031000", "194406.031000", "194406.031000", "194406.046000", "194406.046000", "194406.062000", "194406.062000", "194446.000000", "194446.000000", "194446.000000", "194446.015000", "194446.015000", "194446.015000", "194446.015000", "194446.015000", "194446.015000", "194446.015000", "194446.031000", "194446.031000", "194446.031000", "194446.031000", "194446.031000", "194446.031000", "194446.031000", "194446.046000", "194446.046000", "194446.046000", "194526.000000", "194526.000000", "194526.000000", "194526.015000", "194526.015000", "194526.015000", "194526.015000", "194526.015000", "194526.015000", "194526.015000", "194526.031000", "194526.031000", "194526.031000", "194526.031000", "194526.031000", "194526.031000", "194526.046000", "194526.046000", "194526.046000", "194526.046000", "194606.000000", "194606.000000", "194606.015000", "194606.015000", "194606.031000", "194606.031000", "194606.031000", "194606.031000", "194606.031000", "194606.031000", "194606.031000", "194606.031000", "194606.046000", "194606.046000", "194606.046000", "194606.046000", "194606.046000", "194606.046000", "194606.062000", "194606.062000", "194646.000000", "194646.000000", "194646.000000", "194646.015000", "194646.015000", "194646.015000", "194646.015000", "194646.015000", "194646.015000", "194646.015000", "194646.031000", "194646.031000", "194646.031000", "194646.031000", "194646.046000", "194646.046000", "194646.046000", "194646.062000", "194646.062000", "194646.062000", "194721.609000", "194721.609000", "194721.609000", "194721.625000", "194721.625000", "194721.625000", "194721.625000", "194721.625000", "194721.640000", "194721.640000", "194721.640000", "194721.640000", "194721.656000", "194721.656000", "194721.656000", "194721.656000", "194721.656000", "194721.656000"],
