{
  "AcquisitionMatrixPE": 72,
  "AcquisitionNumber": 1,
  "AcquisitionTime": "18:44:20.212500",
  "BandwidthPerPixelPhaseEncode": 28.935,
  "BaseResolution": 72,
  "CoilString": "C:HEA;HEP",
  "ConversionSoftware": "dcm2niix",
  "ConversionSoftwareVersion": "v1.0.20190410  GCC6.3.0",
  "DerivedVendorReportedEchoSpacing": 0.000480003,
  "DeviceSerialNumber": "35149",
  "DwellTime": 2.9e-06,
  "EchoTime": 0.025,
  "EffectiveEchoSpacing": 0.000480003,
  "FlipAngle": 75,
  "ImageOrientationPatientDICOM": [0.997789, 0.0537118, -0.0391471, -0.0664581, 0.798434, -0.598404],
  "ImageType": [
    "ORIGINAL",
    "PRIMARY",
    "M",
    "ND",
    "MOSAIC"
],
  "ImagingFrequency": 123.254,
  "InPlanePhaseEncodingDirectionDICOM": "COL",
  "InstitutionAddress": "Street_StreetNo_Rehovot_91E162_District_IL_ZIP",
  "InstitutionName": "Weizmann",
  "InstitutionalDepartmentName": "Department",
  "MRAcquisitionType": "2D",
  "MagneticFieldStrength": 3,
  "Manufacturer": "Siemens",
  "ManufacturersModelName": "TrioTim",
  "Modality": "MR",
  "PartialFourier": 1,
  "PatientPosition": "HFS",
  "PercentPhaseFOV": 100,
  "PhaseEncodingDirection": "j-",
  "PhaseEncodingSteps": 72,
  "PhaseResolution": 1,
  "PixelBandwidth": 2395,
  "ProcedureStepDescription": "Weizmann_Sobel",
  "ProtocolName": "exp2_30_to_AC-PC",
  "PulseSequenceDetails": "%SiemensSeq%_ep2d_pace",
  "ReceiveCoilName": "HeadMatrix",
  "ReconMatrixPE": 72,
  "RepetitionTime": 2,
  "SAR": 0.151306,
  "ScanOptions": "FS",
  "ScanningSequence": "EP",
  "SequenceName": "_epfid2d1_72",
  "SequenceVariant": "SK",
  "SeriesDescription": "exp2_30_to_AC-PC",
  "SeriesNumber": 5,
  "ShimSetting": [2326, 9437, -5358, 687, 310, -517, 370, 107],
  "SliceThickness": 3.7,
  "SliceTiming": [0.995, 0, 1.0525, 0.06, 1.1125, 0.1175, 1.17, 0.175, 1.2275, 0.235, 1.2875, 0.2925, 1.345, 0.3525, 1.4025, 0.41, 1.4625, 0.4675, 1.52, 0.5275, 1.58, 0.585, 1.6375, 0.645, 1.695, 0.7025, 1.755, 0.76, 1.8125, 0.82, 1.8725, 0.8775, 1.93, 0.935],
  "SoftwareVersions": "syngo_MR_B17",
  "SpacingBetweenSlices": 3.7,
  "StationName": "MRC35149",
  "TaskName": "blank",
  "TotalReadoutTime": 0.0340802,
  "TxRefAmp": 406.927,
  "VendorReportedEchoSpacing": 0.00048,
  "dcmmeta_affine": [
    [-2.9933664798736572, -0.1993742436170578, 0.0032744440250098705, 117.11854553222656],
    [-0.1611355096101761, 2.39530086517334, -2.218824625015259, -34.1417350769043],
    [-0.11744139343500137, 1.7952114343643188, 2.9608795642852783, -93.60184478759766],
    [0.0, 0.0, 0.0, 1.0]
],
  "dcmmeta_reorient_transform": [
    [0.0, -1.0, 0.0, 71.0],
    [1.0, 0.0, 0.0, 0.0],
    [0.0, 0.0, 1.0, 0.0],
    [0.0, 0.0, 0.0, 1.0]
],
  "dcmmeta_shape": [72, 72, 34, 450],
  "dcmmeta_slice_dim": 2,
  "dcmmeta_version": 0.6,
  "global": {
    "const": {
      "AcquisitionMatrix": [72, 0, 0, 72],
      "AngioFlag": "N",
      "BitsAllocated": 16,
      "BitsStored": 12,
      "Columns": 432,
      "EchoNumbers": 1,
      "EchoTime": 25.0,
      "EchoTrainLength": 1,
      "FlipAngle": 75.0,
      "HighBit": 11,
      "ImageOrientationPatient": [0.99778882562048, 0.05371183820477, -0.0391471314859, -0.0664580790323, 0.79843358358291, -0.5984038237999],
      "ImagePositionPatient": [-605.88157979919, -596.08314713678, 378.13568549858],
      "ImageType": [
        "ORIGINAL",
        "PRIMARY",
        "M",
        "ND",
        "MOSAIC"
],
      "ImagedNucleus": "1H",
      "ImagingFrequency": 123.254464,
      "InPlanePhaseEncodingDirection": "COL",
      "MRAcquisitionType": "2D",
      "MagneticFieldStrength": 3.0,
      "Manufacturer": "SIEMENS",
      "ManufacturerModelName": "TrioTim",
      "Modality": "MR",
      "NumberOfAverages": 1.0,
      "NumberOfPhaseEncodingSteps": 72,
      "PercentPhaseFieldOfView": 100.0,
      "PercentSampling": 100.0,
      "PerformedProcedureStepStartTime": "181737.515000",
      "PhotometricInterpretation": "MONOCHROME2",
      "PixelBandwidth": 2395.0,
      "PixelRepresentation": 0,
      "PixelSpacing": [3.0, 3.0],
      "ProtocolName": "exp2_30_to_AC-PC",
      "RepetitionTime": 2000.0,
      "Rows": 432,
      "SAR": 0.15130585105699,
      "SamplesPerPixel": 1,
      "ScanOptions": "FS",
      "ScanningSequence": "EP",
      "SequenceName": "*epfid2d1_72",
      "SequenceVariant": "SK",
      "SeriesDescription": "exp2_30_to_AC-PC",
      "SeriesNumber": 5,
      "SeriesTime": "184513.828000",
      "SliceLocation": -54.325882997306,
      "SliceThickness": 3.7000000476837,
      "SmallestImagePixelValue": 0,
      "SoftwareVersions": "syngo MR B17",
      "SpacingBetweenSlices": 3.7000000524647,
      "SpecificCharacterSet": "ISO_IR 100",
      "StudyID": "1",
      "StudyTime": "181737.406000",
      "TransmitCoilName": "Body",
      "VariableFlipAngleFlag": "N",
      "WindowCenterWidthExplanation": "Algo1",
      "dBdt": 0.0},
    "slices": {}
  },
  "time": {
    "samples": {
      "AcquisitionNumber": [1, 2, 3, 4, 5, 6, 7, 8, 9, 10, 11, 12, 13, 14, 15, 16, 17, 18, 19, 20, 21, 22, 23, 24, 25, 26, 27, 28, 29, 30, 31, 32, 33, 34, 35, 36, 37, 38, 39, 40, 41, 42, 43, 44, 45, 46, 47, 48, 49, 50, 51, 52, 53, 54, 55, 56, 57, 58, 59, 60, 61, 62, 63, 64, 65, 66, 67, 68, 69, 70, 71, 72, 73, 74, 75, 76, 77, 78, 79, 80, 81, 82, 83, 84, 85, 86, 87, 88, 89, 90, 91, 92, 93, 94, 95, 96, 97, 98, 99, 100, 101, 102, 103, 104, 105, 106, 107, 108, 109, 110, 111, 112, 113, 114, 115, 116, 117, 118, 119, 120, 121, 122, 123, 124, 125, 126, 127, 128, 129, 130, 131, 132, 133, 134, 135, 136, 137, 138, 139, 140, 141, 142, 143, 144, 145, 146, 147, 148, 149, 150, 151, 152, 153, 154, 155, 156, 157, 158, 159, 160, 161, 162, 163, 164, 165, 166, 167, 168, 169, 170, 171, 172, 173, 174, 175, 176, 177, 178, 179, 180, 181, 182, 183, 184, 185, 186, 187, 188, 189, 190, 191, 192, 193, 194, 195, 196, 197, 198, 199, 200, 201, 202, 203, 204, 205, 206, 207, 208, 209, 210, 211, 212, 213, 214, 215, 216, 217, 218, 219, 220, 221, 222, 223, 224, 225, 226, 227, 228, 229, 230, 231, 232, 233, 234, 235, 236, 237, 238, 239, 240, 241, 242, 243, 244, 245, 246, 247, 248, 249, 250, 251, 252, 253, 254, 255, 256, 257, 258, 259, 260, 261, 262, 263, 264, 265, 266, 267, 268, 269, 270, 271, 272, 273, 274, 275, 276, 277, 278, 279, 280, 281, 282, 283, 284, 285, 286, 287, 288, 289, 290, 291, 292, 293, 294, 295, 296, 297, 298, 299, 300, 301, 302, 303, 304, 305, 306, 307, 308, 309, 310, 311, 312, 313, 314, 315, 316, 317, 318, 319, 320, 321, 322, 323, 324, 325, 326, 327, 328, 329, 330, 331, 332, 333, 334, 335, 336, 337, 338, 339, 340, 341, 342, 343, 344, 345, 346, 347, 348, 349, 350, 351, 352, 353, 354, 355, 356, 357, 358, 359, 360, 361, 362, 363, 364, 365, 366, 367, 368, 369, 370, 371, 372, 373, 374, 375, 376, 377, 378, 379, 380, 381, 382, 383, 384, 385, 386, 387, 388, 389, 390, 391, 392, 393, 394, 395, 396, 397, 398, 399, 400, 401, 402, 403, 404, 405, 406, 407, 408, 409, 410, 411, 412, 413, 414, 415, 416, 417, 418, 419, 420, 421, 422, 423, 424, 425, 426, 427, 428, 429, 430, 431, 432, 433, 434, 435, 436, 437, 438, 439, 440, 441, 442, 443, 444, 445, 446, 447, 448, 449, 450],
      "AcquisitionTime": ["184420.212500", "184422.220000", "184424.227500", "184426.235000", "184428.245000", "184430.252500", "184432.260000", "184434.267500", "184436.275000", "184438.285000", "184440.292500", "184442.300000", "184444.307500", "184446.317500", "184448.325000", "184450.332500", "184452.340000", "184454.347500", "184456.357500", "184458.365000", "184500.372500", "184502.380000", "184504.387500", "184506.397500", "184508.405000", "184510.412500", "184512.420000", "184514.430000", "184516.437500", "184518.445000", "184520.452500", "184522.460000", "184524.470000", "184526.477500", "184528.485000", "184530.492500", "184532.500000", "184534.510000", "184536.517500", "184538.525000", "184540.532500", "184542.542500", "184544.550000", "184546.557500", "184548.565000", "184550.572500", "184552.582500", "184554.590000", "184556.597500", "184558.605000", "184600.612500", "184602.622500", "184604.630000", "184606.637500", "184608.645000", "184610.655000", "184612.662500", "184614.670000", "184616.677500", "184618.685000", "184620.695000", "184622.702500", "184624.710000", "184626.717500", "184628.725000", "184630.735000", "184632.742500", "184634.750000", "184636.757500", "184638.765000", "184640.775000", "184642.782500", "184644.790000", "184646.797500", "184648.807500", "184650.815000", "184652.822500", "184654.830000", "184656.837500", "184658.847500", "184700.855000", "184702.862500", "184704.870000", "184706.877500", "184708.887500", "184710.895000", "184712.902500", "184714.910000", "184716.920000", "184718.927500", "184720.935000", "184722.942500", "184724.950000", "184726.960000", "184728.967500", "184730.975000", "184732.982500", "184734.990000", "184737.000000", "184739.007500", "184741.015000", "184743.022500", "184745.032500", "184747.040000", "184749.047500", "184751.055000", "184753.062500", "184755.072500", "184757.080000", "184759.087500", "184801.095000", "184803.102500", "184805.112500", "184807.120000", "184809.127500", "184811.135000", "184813.142500", "184815.152500", "184817.160000", "184819.167500", "184821.175000", "184823.185000", "184825.192500", "184827.200000", "184829.207500", "184831.215000", "184833.225000", "184835.232500", "184837.240000", "184839.247500", "184841.255000", "184843.265000", "184845.272500", "184847.280000", "184849.287500", "184851.297500", "184853.305000", "184855.312500", "184857.320000", "184859.327500", "184901.337500", "184903.345000", "184905.352500", "184907.360000", "184909.367500", "184911.377500", "184913.385000", "184915.392500", "184917.400000", "184919.410000", "184921.417500", "184923.425000", "184925.432500", "184927.440000", "184929.450000", "184931.457500", "184933.465000", "184935.472500", "184937.480000", "184939.490000", "184941.497500", "184943.505000", "184945.512500", "184947.520000", "184949.530000", "184951.537500", "184953.545000", "184955.552500", "184957.562500", "184959.570000", "185001.577500", "185003.585000", "185005.592500", "185007.602500", "185009.610000", "185011.617500", "185013.625000", "185015.632500", "185017.642500", "185019.650000", "185021.657500", "185023.665000", "185025.675000", "185027.682500", "185029.690000", "185031.697500", "185033.705000", "185035.715000", "185037.722500", "185039.730000", "185041.737500", "185043.745000", "185045.755000", "185047.762500", "185049.770000", "185051.777500", "185053.787500", "185055.795000", "185057.802500", "185059.810000", "185101.817500", "185103.827500", "185105.835000", "185107.842500", "185109.850000", "185111.857500", "185113.867500", "185115.875000", "185117.882500", "185119.890000", "185121.897500", "185123.907500", "185125.915000", "185127.922500", "185129.930000", "185131.940000", "185133.947500", "185135.955000", "185137.962500", "185139.970000", "185141.980000", "185143.987500", "185145.995000", "185148.002500", "185150.010000", "185152.020000", "185154.027500", "185156.035000", "185158.042500", "185200.052500", "185202.060000", "185204.067500", "185206.075000", "185208.082500", "185210.092500", "185212.100000", "185214.107500", "185216.115000", "185218.122500", "185220.132500", "185222.140000", "185224.147500", "185226.155000", "185228.165000", "185230.172500", "185232.180000", "185234.187500", "185236.195000", "185238.205000", "185240.212500", "185242.220000", "185244.227500", "185246.235000", "185248.245000", "185250.252500", "185252.260000", "185254.267500", "185256.275000", "185258.285000", "185300.292500", "185302.300000", "185304.307500", "185306.317500", "185308.325000", "185310.332500", "185312.340000", "185314.347500", "185316.357500", "185318.365000", "185320.372500", "185322.380000", "185324.387500", "185326.397500", "185328.405000", "185330.412500", "185332.420000", "185334.430000", "185336.437500", "185338.445000", "185340.452500", "185342.460000", "185344.470000", "185346.477500", "185348.485000", "185350.492500", "185352.500000", "185354.510000", "185356.517500", "185358.525000", "185400.532500", "185402.542500", "185404.550000", "185406.557500", "185408.565000", "185410.572500", "185412.582500", "185414.590000", "185416.597500", "185418.605000", "185420.612500", "185422.622500", "185424.630000", "185426.637500", "185428.645000", "185430.655000", "185432.662500", "185434.670000", "185436.677500", "185438.685000", "185440.695000", "185442.702500", "185444.710000", "185446.717500", "185448.725000", "185450.735000", "185452.742500", "185454.750000", "185456.757500", "185458.765000", "185500.775000", "185502.782500", "185504.790000", "185506.797500", "185508.807500", "185510.815000", "185512.822500", "185514.830000", "185516.837500", "185518.847500", "185520.855000", "185522.862500", "185524.870000", "185526.877500", "185528.887500", "185530.895000", "185532.902500", "185534.910000", "185536.920000", "185538.927500", "185540.935000", "185542.942500", "185544.950000", "185546.960000", "185548.967500", "185550.975000", "185552.982500", "185554.990000", "185557.000000", "185559.007500", "185601.015000", "185603.022500", "185605.032500", "185607.040000", "185609.047500", "185611.055000", "185613.062500", "185615.072500", "185617.080000", "185619.087500", "185621.095000", "185623.102500", "185625.112500", "185627.120000", "185629.127500", "185631.135000", "185633.142500", "185635.152500", "185637.160000", "185639.167500", "185641.175000", "185643.185000", "185645.192500", "185647.200000", "185649.207500", "185651.215000", "185653.225000", "185655.232500", "185657.240000", "185659.247500", "185701.255000", "185703.265000", "185705.272500", "185707.280000", "185709.287500", "185711.297500", "185713.305000", "185715.312500", "185717.320000", "185719.327500", "185721.337500", "185723.345000", "185725.352500", "185727.360000", "185729.367500", "185731.377500", "185733.385000", "185735.392500", "185737.400000", "185739.410000", "185741.417500", "185743.425000", "185745.432500", "185747.440000", "185749.450000", "185751.457500", "185753.465000", "185755.472500", "185757.480000", "185759.490000", "185801.497500", "185803.505000", "185805.512500", "185807.520000", "185809.530000", "185811.537500", "185813.545000", "185815.552500", "185817.562500", "185819.570000", "185821.577500", "185823.585000", "185825.592500", "185827.602500", "185829.610000", "185831.617500", "185833.625000", "185835.632500", "185837.642500", "185839.650000", "185841.657500", "185843.665000", "185845.675000", "185847.682500", "185849.690000", "185851.697500", "185853.705000", "185855.715000", "185857.722500", "185859.730000", "185901.737500", "185903.745000", "185905.755000", "185907.762500", "185909.770000", "185911.777500", "185913.787500", "185915.795000", "185917.802500", "185919.810000", "185921.817500"],
      "ContentTime": ["184513.828000", "184513.828000", "184513.843000", "184513.843000", "184513.843000", "184513.843000", "184513.843000", "184513.843000", "184513.843000", "184513.843000", "184513.859000", "184513.859000", "184513.859000", "184513.859000", "184513.859000", "184513.859000", "184513.859000", "184513.875000", "184513.875000", "184513.875000", "184513.875000", "184513.875000", "184513.875000", "184513.875000", "184513.890000", "184513.890000", "184513.890000", "184553.828000", "184553.828000", "184553.828000", "184553.843000", "184553.843000", "184553.843000", "184553.843000", "184553.843000", "184553.843000", "184553.859000", "184553.859000", "184553.859000", "184553.859000", "184553.875000", "184553.875000", "184553.875000", "184553.875000", "184553.875000", "184553.875000", "184553.875000", "184633.828000", "184633.828000", "184633.828000", "184633.828000", "184633.828000", "184633.828000", "184633.828000", "184633.828000", "184633.843000", "184633.843000", "184633.843000", "184633.859000", "184633.859000", "184633.859000", "184633.859000", "184633.859000", "184633.859000", "184633.875000", "184633.875000", "184633.875000", "184713.828000", "184713.828000", "184713.828000", "184713.828000", "184713.828000", "184713.828000", "184713.828000", "184713.843000", "184713.843000", "184713.843000", "184713.843000", "184713.843000", "184713.843000", "184713.843000", "184713.859000", "184713.859000", "184713.859000", "184713.859000", "184713.859000", "184713.859000", "184753.828000", "184753.828000", "184753.828000", "184753.828000", "184753.828000", "184753.828000", "184753.828000", "184753.843000", "184753.843000", "184753.843000", "184753.843000", "184753.843000", "184753.843000", "184753.859000", "184753.859000", "184753.859000", "184753.859000", "184753.859000", "184753.875000", "184753.875000", "184833.828000", "184833.828000", "184833.828000", "184833.828000", "184833.828000", "184833.828000", "184833.828000", "184833.843000", "184833.843000", "184833.843000", "184833.843000", "184833.843000", "184833.843000", "184833.843000", "184833.859000", "184833.859000", "184833.859000", "184833.859000", "184833.859000", "184833.859000", "184913.828000", "184913.828000", "184913.828000", "184913.828000", "184913.828000", "184913.828000", "184913.828000", "184913.843000", "184913.843000", "184913.843000", "184913.843000", "184913.843000", "184913.843000", "184913.859000", "184913.859000", "184913.859000", "184913.859000", "184913.859000", "184913.859000", "184913.859000", "184933.828000", "184933.828000", "184933.828000", "184933.828000", "184933.828000", "184933.843000", "184933.843000", "184933.843000", "184933.843000", "184933.843000", "185013.828000", "185013.828000", "185013.828000", "185013.828000", "185013.828000", "185013.828000", "185013.828000", "185013.843000", "185013.843000", "185013.843000", "185013.843000", "185013.843000", "185013.843000", "185013.859000", "185013.859000", "185013.859000", "185013.859000", "185013.859000", "185013.859000", "185013.859000", "185053.828000", "185053.828000", "185053.828000", "185053.828000", "185053.828000", "185053.828000", "185053.828000", "185053.843000", "185053.843000", "185053.843000", "185053.843000", "185053.843000", "185053.843000", "185053.859000", "185053.859000", "185053.859000", "185053.859000", "185053.859000", "185053.859000", "185053.859000", "185133.828000", "185133.828000", "185133.828000", "185133.828000", "185133.828000", "185133.843000", "185133.843000", "185133.843000", "185133.843000", "185133.843000", "185133.843000", "185133.843000", "185133.859000", "185133.859000", "185133.859000", "185133.859000", "185133.859000", "185133.875000", "185133.875000", "185133.875000", "185213.828000", "185213.828000", "185213.828000", "185213.828000", "185213.828000", "185213.828000", "185213.828000", "185213.843000", "185213.843000", "185213.843000", "185213.843000", "185213.843000", "185213.843000", "185213.843000", "185213.859000", "185213.859000", "185213.859000", "185213.859000", "185213.859000", "185213.859000", "185253.828000", "185253.828000", "185253.828000", "185253.828000", "185253.828000", "185253.828000", "185253.828000", "185253.843000", "185253.843000", "185253.843000", "185253.843000", "185253.843000", "185253.859000", "185253.859000", "185253.859000", "185253.859000", "185253.859000", "185253.859000", "185253.859000", "185253.875000", "185333.828000", "185333.828000", "185333.828000", "185333.828000", "185333.828000", "185333.828000", "185333.828000", "185333.843000", "185333.843000", "185333.843000", "185333.843000", "185333.843000", "185333.843000", "185333.843000", "185333.859000", "185333.859000", "185333.859000", "185333.859000", "185333.859000", "185333.859000", "185413.828000", "185413.828000", "185413.828000", "185413.828000", "185413.828000", "185413.828000", "185413.828000", "185413.843000", "185413.843000", "185413.843000", "185413.843000", "185413.843000", "185413.859000", "185413.859000", "185413.859000", "185413.859000", "185413.859000", "185413.859000", "185413.859000", "185413.875000", "185453.828000", "185453.828000", "185453.828000", "185453.828000", "185453.828000", "185453.828000", "185453.828000", "185453.843000", "185453.843000", "185453.843000", "185453.843000", "185453.843000", "185453.843000", "185453.859000", "185453.859000", "185453.859000", "185453.859000", "185453.859000", "185453.859000", "185453.859000", "185533.828000", "185533.828000", "185533.828000", "185533.828000", "185533.828000", "185533.828000", "185533.828000", "185533.843000", "185533.843000", "185533.843000", "185533.843000", "185533.843000", "185533.843000", "185533.843000", "185533.859000", "185533.859000", "185533.859000", "185533.859000", "185533.859000", "185533.859000", "185613.828000", "185613.828000", "185613.828000", "185613.828000", "185613.828000", "185613.828000", "185613.828000", "185613.843000", "185613.843000", "185613.843000", "185613.843000", "185613.843000", "185613.843000", "185613.843000", "185613.859000", "185613.859000", "185613.859000", "185613.859000", "185613.859000", "185613.859000", "185653.828000", "185653.828000", "185653.828000", "185653.828000", "185653.828000", "185653.828000", "185653.828000", "185653.843000", "185653.843000", "185653.843000", "185653.843000", "185653.843000", "185653.843000", "185653.843000", "185653.859000", "185653.859000", "185653.859000", "185653.859000", "185653.859000", "185653.859000", "185733.828000", "185733.828000", "185733.828000", "185733.828000", "185733.828000", "185733.828000", "185733.828000", "185733.843000", "185733.843000", "185733.843000", "185733.843000", "185733.843000", "185733.843000", "185733.843000", "185733.859000", "185733.859000", "185733.859000", "185733.859000", "185733.859000", "185733.859000", "185813.828000", "185813.828000", "185813.828000", "185813.828000", "185813.843000", "185813.843000", "185813.843000", "185813.843000", "185813.843000", "185813.843000", "185813.843000", "185813.859000", "185813.859000", "185813.859000", "185813.859000", "185813.859000", "185813.859000", "185813.875000", "185813.875000", "185813.875000", "185853.828000", "185853.828000", "185853.828000", "185853.828000", "185853.828000", "185853.828000", "185853.828000", "185853.843000", "185853.843000", "185853.843000", "185853.843000", "185853.843000", "185853.843000", "185853.859000", "185853.859000", "185853.859000", "185853.859000", "185853.859000", "185853.859000", "185853.859000", "185919.656000", "185919.671000", "185919.671000", "185919.671000", "185919.671000", "185919.671000", "185919.687000", "185919.687000", "185919.687000", "185919.687000", "185919.687000", "185919.687000", "185919.703000"],
