{
  "AcquisitionMatrixPE": 72,
  "AcquisitionNumber": 1,
  "AcquisitionTime": "18:22:53.285000",
  "BandwidthPerPixelPhaseEncode": 28.935,
  "BaseResolution": 72,
  "CoilString": "C:HEA;HEP",
  "ConversionSoftware": "dcm2niix",
  "ConversionSoftwareVersion": "v1.0.20190410  GCC6.3.0",
  "DerivedVendorReportedEchoSpacing": 0.000480003,
  "DeviceSerialNumber": "35149",
  "DwellTime": 2.9e-06,
  "EchoTime": 0.025,
  "EffectiveEchoSpacing": 0.000480003,
  "FlipAngle": 75,
  "ImageOrientationPatientDICOM": [0.997789, 0.0537118, -0.0391471, -0.0664581, 0.798434, -0.598404],
  "ImageType": [
    "ORIGINAL",
    "PRIMARY",
    "M",
    "ND",
    "MOSAIC"
],
  "ImagingFrequency": 123.254,
  "InPlanePhaseEncodingDirectionDICOM": "COL",
  "InstitutionAddress": "Street_StreetNo_Rehovot_91E162_District_IL_ZIP",
  "InstitutionName": "Weizmann",
  "InstitutionalDepartmentName": "Department",
  "MRAcquisitionType": "2D",
  "MagneticFieldStrength": 3,
  "Manufacturer": "Siemens",
  "ManufacturersModelName": "TrioTim",
  "Modality": "MR",
  "PartialFourier": 1,
  "PatientPosition": "HFS",
  "PercentPhaseFOV": 100,
  "PhaseEncodingDirection": "j-",
  "PhaseEncodingSteps": 72,
  "PhaseResolution": 1,
  "PixelBandwidth": 2395,
  "ProcedureStepDescription": "Weizmann_Sobel",
  "ProtocolName": "exp1_30_to_AC-PC",
  "PulseSequenceDetails": "%SiemensSeq%_ep2d_pace",
  "ReceiveCoilName": "HeadMatrix",
  "ReconMatrixPE": 72,
  "RepetitionTime": 2,
  "SAR": 0.151306,
  "ScanOptions": "FS",
  "ScanningSequence": "EP",
  "SequenceName": "_epfid2d1_72",
  "SequenceVariant": "SK",
  "SeriesDescription": "exp1_30_to_AC-PC",
  "SeriesNumber": 3,
  "ShimSetting": [2326, 9437, -5358, 687, 310, -517, 370, 107],
  "SliceThickness": 3.7,
  "SliceTiming": [0.9925, 0, 1.0525, 0.0575, 1.11, 0.1175, 1.1675, 0.175, 1.2275, 0.2325, 1.285, 0.2925, 1.345, 0.35, 1.4025, 0.4075, 1.46, 0.4675, 1.52, 0.525, 1.5775, 0.585, 1.635, 0.6425, 1.695, 0.7, 1.7525, 0.76, 1.8125, 0.8175, 1.87, 0.875, 1.9275, 0.935],
  "SoftwareVersions": "syngo_MR_B17",
  "SpacingBetweenSlices": 3.7,
  "StationName": "MRC35149",
  "TaskName": "bodyodor",
  "TotalReadoutTime": 0.0340802,
  "TxRefAmp": 406.927,
  "VendorReportedEchoSpacing": 0.00048,
  "dcmmeta_affine": [
    [-2.9933664798736572, -0.1993742436170578, 0.0032744440250098705, 117.11854553222656],
    [-0.1611355096101761, 2.39530086517334, -2.218824625015259, -34.1417350769043],
    [-0.11744139343500137, 1.7952114343643188, 2.9608795642852783, -93.60184478759766],
    [0.0, 0.0, 0.0, 1.0]
],
  "dcmmeta_reorient_transform": [
    [0.0, -1.0, 0.0, 71.0],
    [1.0, 0.0, 0.0, 0.0],
    [0.0, 0.0, 1.0, 0.0],
    [0.0, 0.0, 0.0, 1.0]
],
  "dcmmeta_shape": [72, 72, 34, 450],
  "dcmmeta_slice_dim": 2,
  "dcmmeta_version": 0.6,
  "global": {
    "const": {
      "AcquisitionMatrix": [72, 0, 0, 72],
      "AngioFlag": "N",
      "BitsAllocated": 16,
      "BitsStored": 12,
      "Columns": 432,
      "EchoNumbers": 1,
      "EchoTime": 25.0,
      "EchoTrainLength": 1,
      "FlipAngle": 75.0,
      "HighBit": 11,
      "ImageOrientationPatient": [0.99778882562048, 0.05371183820477, -0.0391471314859, -0.0664580790323, 0.79843358358291, -0.5984038237999],
      "ImagePositionPatient": [-605.88157979919, -596.08314713678, 378.13568549858],
      "ImageType": [
        "ORIGINAL",
        "PRIMARY",
        "M",
        "ND",
        "MOSAIC"
],
      "ImagedNucleus": "1H",
      "ImagingFrequency": 123.254465,
      "InPlanePhaseEncodingDirection": "COL",
      "MRAcquisitionType": "2D",
      "MagneticFieldStrength": 3.0,
      "Manufacturer": "SIEMENS",
      "ManufacturerModelName": "TrioTim",
      "Modality": "MR",
      "NumberOfAverages": 1.0,
      "NumberOfPhaseEncodingSteps": 72,
      "PercentPhaseFieldOfView": 100.0,
      "PercentSampling": 100.0,
      "PerformedProcedureStepStartTime": "181737.515000",
      "PhotometricInterpretation": "MONOCHROME2",
      "PixelBandwidth": 2395.0,
      "PixelRepresentation": 0,
      "PixelSpacing": [3.0, 3.0],
      "ProtocolName": "exp1_30_to_AC-PC",
      "RepetitionTime": 2000.0,
      "Rows": 432,
      "SAR": 0.15130585105699,
      "SamplesPerPixel": 1,
      "ScanOptions": "FS",
      "ScanningSequence": "EP",
      "SequenceName": "*epfid2d1_72",
      "SequenceVariant": "SK",
      "SeriesDescription": "exp1_30_to_AC-PC",
      "SeriesNumber": 3,
      "SeriesTime": "182344.796000",
      "SliceLocation": -54.325882997306,
      "SliceThickness": 3.7000000476837,
      "SmallestImagePixelValue": 0,
      "SoftwareVersions": "syngo MR B17",
      "SpacingBetweenSlices": 3.7000000524647,
      "SpecificCharacterSet": "ISO_IR 100",
      "StudyID": "1",
      "StudyTime": "181737.406000",
      "TransmitCoilName": "Body",
      "VariableFlipAngleFlag": "N",
      "WindowCenterWidthExplanation": "Algo1",
      "dBdt": 0.0},
    "slices": {}
  },
  "time": {
    "samples": {
      "AcquisitionNumber": [1, 2, 3, 4, 5, 6, 7, 8, 9, 10, 11, 12, 13, 14, 15, 16, 17, 18, 19, 20, 21, 22, 23, 24, 25, 26, 27, 28, 29, 30, 31, 32, 33, 34, 35, 36, 37, 38, 39, 40, 41, 42, 43, 44, 45, 46, 47, 48, 49, 50, 51, 52, 53, 54, 55, 56, 57, 58, 59, 60, 61, 62, 63, 64, 65, 66, 67, 68, 69, 70, 71, 72, 73, 74, 75, 76, 77, 78, 79, 80, 81, 82, 83, 84, 85, 86, 87, 88, 89, 90, 91, 92, 93, 94, 95, 96, 97, 98, 99, 100, 101, 102, 103, 104, 105, 106, 107, 108, 109, 110, 111, 112, 113, 114, 115, 116, 117, 118, 119, 120, 121, 122, 123, 124, 125, 126, 127, 128, 129, 130, 131, 132, 133, 134, 135, 136, 137, 138, 139, 140, 141, 142, 143, 144, 145, 146, 147, 148, 149, 150, 151, 152, 153, 154, 155, 156, 157, 158, 159, 160, 161, 162, 163, 164, 165, 166, 167, 168, 169, 170, 171, 172, 173, 174, 175, 176, 177, 178, 179, 180, 181, 182, 183, 184, 185, 186, 187, 188, 189, 190, 191, 192, 193, 194, 195, 196, 197, 198, 199, 200, 201, 202, 203, 204, 205, 206, 207, 208, 209, 210, 211, 212, 213, 214, 215, 216, 217, 218, 219, 220, 221, 222, 223, 224, 225, 226, 227, 228, 229, 230, 231, 232, 233, 234, 235, 236, 237, 238, 239, 240, 241, 242, 243, 244, 245, 246, 247, 248, 249, 250, 251, 252, 253, 254, 255, 256, 257, 258, 259, 260, 261, 262, 263, 264, 265, 266, 267, 268, 269, 270, 271, 272, 273, 274, 275, 276, 277, 278, 279, 280, 281, 282, 283, 284, 285, 286, 287, 288, 289, 290, 291, 292, 293, 294, 295, 296, 297, 298, 299, 300, 301, 302, 303, 304, 305, 306, 307, 308, 309, 310, 311, 312, 313, 314, 315, 316, 317, 318, 319, 320, 321, 322, 323, 324, 325, 326, 327, 328, 329, 330, 331, 332, 333, 334, 335, 336, 337, 338, 339, 340, 341, 342, 343, 344, 345, 346, 347, 348, 349, 350, 351, 352, 353, 354, 355, 356, 357, 358, 359, 360, 361, 362, 363, 364, 365, 366, 367, 368, 369, 370, 371, 372, 373, 374, 375, 376, 377, 378, 379, 380, 381, 382, 383, 384, 385, 386, 387, 388, 389, 390, 391, 392, 393, 394, 395, 396, 397, 398, 399, 400, 401, 402, 403, 404, 405, 406, 407, 408, 409, 410, 411, 412, 413, 414, 415, 416, 417, 418, 419, 420, 421, 422, 423, 424, 425, 426, 427, 428, 429, 430, 431, 432, 433, 434, 435, 436, 437, 438, 439, 440, 441, 442, 443, 444, 445, 446, 447, 448, 449, 450],
      "AcquisitionTime": ["182253.285000", "182255.292500", "182257.302500", "182259.310000", "182301.317500", "182303.325000", "182305.335000", "182307.342500", "182309.350000", "182311.357500", "182313.365000", "182315.375000", "182317.382500", "182319.390000", "182321.397500", "182323.405000", "182325.415000", "182327.422500", "182329.430000", "182331.437500", "182333.445000", "182335.455000", "182337.462500", "182339.470000", "182341.477500", "182343.487500", "182345.495000", "182347.502500", "182349.510000", "182351.517500", "182353.527500", "182355.535000", "182357.542500", "182359.550000", "182401.557500", "182403.567500", "182405.575000", "182407.582500", "182409.590000", "182411.600000", "182413.607500", "182415.615000", "182417.622500", "182419.630000", "182421.640000", "182423.647500", "182425.655000", "182427.662500", "182429.670000", "182431.680000", "182433.687500", "182435.695000", "182437.702500", "182439.712500", "182441.720000", "182443.727500", "182445.735000", "182447.742500", "182449.752500", "182451.760000", "182453.767500", "182455.775000", "182457.782500", "182459.792500", "182501.800000", "182503.807500", "182505.815000", "182507.822500", "182509.832500", "182511.840000", "182513.847500", "182515.855000", "182517.865000", "182519.872500", "182521.880000", "182523.887500", "182525.895000", "182527.905000", "182529.912500", "182531.920000", "182533.927500", "182535.935000", "182537.945000", "182539.952500", "182541.960000", "182543.967500", "182545.977500", "182547.985000", "182549.992500", "182552.000000", "182554.007500", "182556.017500", "182558.025000", "182600.032500", "182602.040000", "182604.047500", "182606.057500", "182608.065000", "182610.072500", "182612.080000", "182614.090000", "182616.097500", "182618.105000", "182620.112500", "182622.120000", "182624.130000", "182626.137500", "182628.145000", "182630.152500", "182632.160000", "182634.170000", "182636.177500", "182638.185000", "182640.192500", "182642.202500", "182644.210000", "182646.217500", "182648.225000", "182650.232500", "182652.242500", "182654.250000", "182656.257500", "182658.265000", "182700.272500", "182702.282500", "182704.290000", "182706.297500", "182708.305000", "182710.312500", "182712.322500", "182714.330000", "182716.337500", "182718.345000", "182720.355000", "182722.362500", "182724.370000", "182726.377500", "182728.385000", "182730.395000", "182732.402500", "182734.410000", "182736.417500", "182738.425000", "182740.435000", "182742.442500", "182744.450000", "182746.457500", "182748.467500", "182750.475000", "182752.482500", "182754.490000", "182756.497500", "182758.507500", "182800.515000", "182802.522500", "182804.530000", "182806.537500", "182808.547500", "182810.555000", "182812.562500", "182814.570000", "182816.580000", "182818.587500", "182820.595000", "182822.602500", "182824.610000", "182826.620000", "182828.627500", "182830.635000", "182832.642500", "182834.650000", "182836.660000", "182838.667500", "182840.675000", "182842.682500", "182844.690000", "182846.700000", "182848.707500", "182850.715000", "182852.722500", "182854.732500", "182856.740000", "182858.747500", "182900.755000", "182902.762500", "182904.772500", "182906.780000", "182908.787500", "182910.795000", "182912.802500", "182914.812500", "182916.820000", "182918.827500", "182920.835000", "182922.845000", "182924.852500", "182926.860000", "182928.867500", "182930.875000", "182932.885000", "182934.892500", "182936.900000", "182938.907500", "182940.915000", "182942.925000", "182944.932500", "182946.940000", "182948.947500", "182950.957500", "182952.965000", "182954.972500", "182956.980000", "182958.987500", "183000.997500", "183003.005000", "183005.012500", "183007.020000", "183009.027500", "183011.037500", "183013.045000", "183015.052500", "183017.060000", "183019.067500", "183021.077500", "183023.085000", "183025.092500", "183027.100000", "183029.110000", "183031.117500", "183033.125000", "183035.132500", "183037.140000", "183039.150000", "183041.157500", "183043.165000", "183045.172500", "183047.180000", "183049.190000", "183051.197500", "183053.205000", "183055.212500", "183057.222500", "183059.230000", "183101.237500", "183103.245000", "183105.252500", "183107.262500", "183109.270000", "183111.277500", "183113.285000", "183115.292500", "183117.302500", "183119.310000", "183121.317500", "183123.325000", "183125.335000", "183127.342500", "183129.350000", "183131.357500", "183133.365000", "183135.375000", "183137.382500", "183139.390000", "183141.397500", "183143.405000", "183145.415000", "183147.422500", "183149.430000", "183151.437500", "183153.445000", "183155.455000", "183157.462500", "183159.470000", "183201.477500", "183203.487500", "183205.495000", "183207.502500", "183209.510000", "183211.517500", "183213.527500", "183215.535000", "183217.542500", "183219.550000", "183221.557500", "183223.567500", "183225.575000", "183227.582500", "183229.590000", "183231.600000", "183233.607500", "183235.615000", "183237.622500", "183239.630000", "183241.640000", "183243.647500", "183245.655000", "183247.662500", "183249.670000", "183251.680000", "183253.687500", "183255.695000", "183257.702500", "183259.712500", "183301.720000", "183303.727500", "183305.735000", "183307.742500", "183309.752500", "183311.760000", "183313.767500", "183315.775000", "183317.782500", "183319.792500", "183321.800000", "183323.807500", "183325.815000", "183327.822500", "183329.832500", "183331.840000", "183333.847500", "183335.855000", "183337.865000", "183339.872500", "183341.880000", "183343.887500", "183345.895000", "183347.905000", "183349.912500", "183351.920000", "183353.927500", "183355.935000", "183357.945000", "183359.952500", "183401.960000", "183403.967500", "183405.977500", "183407.985000", "183409.992500", "183412.000000", "183414.007500", "183416.017500", "183418.025000", "183420.032500", "183422.040000", "183424.047500", "183426.057500", "183428.065000", "183430.072500", "183432.080000", "183434.090000", "183436.097500", "183438.105000", "183440.112500", "183442.120000", "183444.130000", "183446.137500", "183448.145000", "183450.152500", "183452.160000", "183454.170000", "183456.177500", "183458.185000", "183500.192500", "183502.202500", "183504.210000", "183506.217500", "183508.225000", "183510.232500", "183512.242500", "183514.250000", "183516.257500", "183518.265000", "183520.272500", "183522.282500", "183524.290000", "183526.297500", "183528.305000", "183530.312500", "183532.322500", "183534.330000", "183536.337500", "183538.345000", "183540.355000", "183542.362500", "183544.370000", "183546.377500", "183548.385000", "183550.395000", "183552.402500", "183554.410000", "183556.417500", "183558.425000", "183600.435000", "183602.442500", "183604.450000", "183606.457500", "183608.467500", "183610.475000", "183612.482500", "183614.490000", "183616.497500", "183618.507500", "183620.515000", "183622.522500", "183624.530000", "183626.537500", "183628.547500", "183630.555000", "183632.562500", "183634.570000", "183636.580000", "183638.587500", "183640.595000", "183642.602500", "183644.610000", "183646.620000", "183648.627500", "183650.635000", "183652.642500", "183654.650000", "183656.660000", "183658.667500", "183700.675000", "183702.682500", "183704.690000", "183706.700000", "183708.707500", "183710.715000", "183712.722500", "183714.732500", "183716.740000", "183718.747500", "183720.755000", "183722.762500", "183724.772500", "183726.780000", "183728.787500", "183730.795000", "183732.802500", "183734.812500", "183736.820000", "183738.827500", "183740.835000", "183742.845000", "183744.852500", "183746.860000", "183748.867500", "183750.875000", "183752.885000", "183754.892500"],
      "ContentTime": ["182344.796000", "182344.796000", "182344.812000", "182344.812000", "182344.812000", "182344.812000", "182344.812000", "182344.828000", "182344.828000", "182344.828000", "182344.828000", "182344.828000", "182344.828000", "182344.828000", "182344.843000", "182344.843000", "182344.843000", "182344.859000", "182344.859000", "182344.859000", "182344.859000", "182344.859000", "182344.859000", "182344.859000", "182344.875000", "182424.781000", "182424.781000", "182424.796000", "182424.796000", "182424.796000", "182424.796000", "182424.796000", "182424.796000", "182424.812000", "182424.812000", "182424.812000", "182424.812000", "182424.812000", "182424.812000", "182424.812000", "182424.828000", "182424.828000", "182424.828000", "182424.828000", "182424.828000", "182504.781000", "182504.781000", "182504.796000", "182504.796000", "182504.796000", "182504.796000", "182504.796000", "182504.796000", "182504.796000", "182504.812000", "182504.812000", "182504.812000", "182504.812000", "182504.812000", "182504.812000", "182504.812000", "182504.828000", "182504.828000", "182504.828000", "182504.828000", "182544.781000", "182544.781000", "182544.796000", "182544.796000", "182544.796000", "182544.796000", "182544.796000", "182544.796000", "182544.812000", "182544.812000", "182544.812000", "182544.812000", "182544.812000", "182544.812000", "182544.812000", "182544.828000", "182544.828000", "182544.828000", "182544.828000", "182544.828000", "182624.781000", "182624.796000", "182624.796000", "182624.796000", "182624.796000", "182624.796000", "182624.812000", "182624.812000", "182624.812000", "182624.812000", "182624.812000", "182624.812000", "182624.812000", "182624.828000", "182624.828000", "182624.828000", "182624.828000", "182624.828000", "182624.843000", "182624.843000", "182704.781000", "182704.781000", "182704.796000", "182704.796000", "182704.796000", "182704.796000", "182704.796000", "182704.796000", "182704.812000", "182704.812000", "182704.812000", "182704.812000", "182704.812000", "182704.812000", "182704.812000", "182704.828000", "182704.828000", "182704.828000", "182704.828000", "182704.828000", "182744.781000", "182744.781000", "182744.796000", "182744.796000", "182744.796000", "182744.796000", "182744.796000", "182744.796000", "182744.812000", "182744.812000", "182744.812000", "182744.812000", "182744.812000", "182744.812000", "182744.812000", "182744.828000", "182744.828000", "182744.828000", "182744.828000", "182744.828000", "182824.781000", "182824.781000", "182824.796000", "182824.796000", "182824.796000", "182824.796000", "182824.796000", "182824.796000", "182824.812000", "182824.812000", "182824.812000", "182824.812000", "182824.828000", "182824.828000", "182824.828000", "182824.828000", "182824.828000", "182824.828000", "182824.828000", "182824.843000", "182904.781000", "182904.796000", "182904.796000", "182904.796000", "182904.796000", "182904.796000", "182904.796000", "182904.796000", "182904.812000", "182904.812000", "182904.812000", "182904.812000", "182904.812000", "182904.812000", "182904.812000", "182904.828000", "182904.828000", "182904.828000", "182904.828000", "182904.828000", "182944.781000", "182944.781000", "182944.796000", "182944.796000", "182944.796000", "182944.812000", "182944.812000", "182944.812000", "182944.812000", "182944.812000", "182944.812000", "182944.812000", "182944.828000", "182944.828000", "182944.828000", "182944.828000", "182944.828000", "182944.828000", "182944.828000", "182944.843000", "183024.781000", "183024.781000", "183024.796000", "183024.796000", "183024.796000", "183024.796000", "183024.812000", "183024.812000", "183024.812000", "183024.812000", "183024.828000", "183024.828000", "183024.828000", "183024.828000", "183024.828000", "183024.828000", "183024.828000", "183024.843000", "183024.843000", "183024.843000", "183104.781000", "183104.781000", "183104.796000", "183104.796000", "183104.796000", "183104.796000", "183104.796000", "183104.796000", "183104.796000", "183104.812000", "183104.812000", "183104.812000", "183104.812000", "183104.812000", "183104.828000", "183104.828000", "183104.828000", "183104.828000", "183104.828000", "183104.843000", "183144.781000", "183144.781000", "183144.796000", "183144.796000", "183144.796000", "183144.796000", "183144.796000", "183144.796000", "183144.796000", "183144.812000", "183144.812000", "183144.812000", "183144.812000", "183144.812000", "183144.812000", "183144.828000", "183144.828000", "183144.828000", "183144.828000", "183144.828000", "183224.781000", "183224.781000", "183224.796000", "183224.796000", "183224.796000", "183224.796000", "183224.796000", "183224.796000", "183224.796000", "183224.812000", "183224.812000", "183224.812000", "183224.812000", "183224.828000", "183224.828000", "183224.828000", "183224.828000", "183224.828000", "183224.828000", "183224.828000", "183304.781000", "183304.781000", "183304.796000", "183304.796000", "183304.796000", "183304.796000", "183304.796000", "183304.796000", "183304.796000", "183304.812000", "183304.812000", "183304.812000", "183304.812000", "183304.812000", "183304.812000", "183304.828000", "183304.828000", "183304.828000", "183304.828000", "183304.828000", "183344.781000", "183344.781000", "183344.796000", "183344.796000", "183344.796000", "183344.796000", "183344.796000", "183344.796000", "183344.812000", "183344.812000", "183344.812000", "183344.812000", "183344.812000", "183344.812000", "183344.828000", "183344.828000", "183344.828000", "183344.828000", "183344.828000", "183344.828000", "183424.781000", "183424.781000", "183424.796000", "183424.796000", "183424.796000", "183424.796000", "183424.796000", "183424.796000", "183424.796000", "183424.812000", "183424.812000", "183424.812000", "183424.812000", "183424.812000", "183424.828000", "183424.828000", "183424.828000", "183424.828000", "183424.828000", "183424.843000", "183504.781000", "183504.812000", "183504.812000", "183504.812000", "183504.812000", "183504.812000", "183504.812000", "183504.812000", "183504.828000", "183504.828000", "183504.828000", "183504.828000", "183504.843000", "183504.843000", "183504.843000", "183504.843000", "183504.859000", "183504.859000", "183504.859000", "183504.859000", "183544.781000", "183544.796000", "183544.796000", "183544.796000", "183544.796000", "183544.796000", "183544.796000", "183544.812000", "183544.812000", "183544.812000", "183544.812000", "183544.812000", "183544.812000", "183544.828000", "183544.828000", "183544.828000", "183544.843000", "183544.843000", "183544.843000", "183544.843000", "183624.781000", "183624.781000", "183624.796000", "183624.796000", "183624.796000", "183624.796000", "183624.796000", "183624.796000", "183624.796000", "183624.812000", "183624.812000", "183624.812000", "183624.812000", "183624.812000", "183624.812000", "183624.812000", "183624.828000", "183624.828000", "183624.828000", "183624.828000", "183704.781000", "183704.796000", "183704.796000", "183704.796000", "183704.796000", "183704.812000", "183704.812000", "183704.812000", "183704.812000", "183704.812000", "183704.812000", "183704.812000", "183704.828000", "183704.828000", "183704.828000", "183704.828000", "183704.828000", "183704.828000", "183704.828000", "183704.843000", "183744.781000", "183744.781000", "183744.796000", "183744.796000", "183744.796000", "183744.796000", "183744.796000", "183744.796000", "183744.812000", "183744.812000", "183744.812000", "183744.812000", "183744.812000", "183744.828000", "183744.828000", "183744.828000", "183744.828000", "183744.828000", "183744.828000", "183744.843000", "183752.828000", "183752.843000", "183752.843000", "183752.843000", "183752.843000"],
