{
  "AcquisitionMatrixPE": 72,
  "AcquisitionNumber": 1,
  "AcquisitionTime": "11:51:13.842500",
  "BandwidthPerPixelPhaseEncode": 28.935,
  "BaseResolution": 72,
  "CoilString": "C:HEA;HEP",
  "ConversionSoftware": "dcm2niix",
  "ConversionSoftwareVersion": "v1.0.20190410  GCC6.3.0",
  "DerivedVendorReportedEchoSpacing": 0.000480003,
  "DeviceSerialNumber": "35149",
  "DwellTime": 2.9e-06,
  "EchoTime": 0.025,
  "EffectiveEchoSpacing": 0.000480003,
  "FlipAngle": 75,
  "ImageOrientationPatientDICOM": [0.999641, 0.0265833, 0.00329839, -0.0201328, 0.826821, -0.562104],
  "ImageType": [
    "ORIGINAL",
    "PRIMARY",
    "M",
    "ND",
    "MOSAIC"
],
  "ImagingFrequency": 123.255,
  "InPlanePhaseEncodingDirectionDICOM": "COL",
  "InstitutionAddress": "Street_StreetNo_Rehovot_91E162_District_IL_ZIP",
  "InstitutionName": "Weizmann",
  "InstitutionalDepartmentName": "Department",
  "MRAcquisitionType": "2D",
  "MagneticFieldStrength": 3,
  "Manufacturer": "Siemens",
  "ManufacturersModelName": "TrioTim",
  "Modality": "MR",
  "PartialFourier": 1,
  "PatientPosition": "HFS",
  "PercentPhaseFOV": 100,
  "PhaseEncodingDirection": "j-",
  "PhaseEncodingSteps": 72,
  "PhaseResolution": 1,
  "PixelBandwidth": 2395,
  "ProcedureStepDescription": "Weizmann_Sobel",
  "ProtocolName": "exp1_30_to_AC-PC",
  "PulseSequenceDetails": "%SiemensSeq%_ep2d_pace",
  "ReceiveCoilName": "HeadMatrix",
  "ReconMatrixPE": 72,
  "RepetitionTime": 2,
  "SAR": 0.113647,
  "ScanOptions": "FS",
  "ScanningSequence": "EP",
  "SequenceName": "_epfid2d1_72",
  "SequenceVariant": "SK",
  "SeriesDescription": "exp1_30_to_AC-PC",
  "SeriesNumber": 5,
  "ShimSetting": [2340, 9433, -5286, 816, 215, -366, 27, 232],
  "SliceThickness": 3.7,
  "SliceTiming": [0.9925, 0, 1.0525, 0.0575, 1.11, 0.115, 1.1675, 0.175, 1.2275, 0.2325, 1.285, 0.2925, 1.3425, 0.35, 1.4025, 0.4075, 1.46, 0.4675, 1.52, 0.525, 1.5775, 0.5825, 1.635, 0.6425, 1.695, 0.7, 1.7525, 0.76, 1.8125, 0.8175, 1.87, 0.875, 1.9275, 0.935],
  "SoftwareVersions": "syngo_MR_B17",
  "SpacingBetweenSlices": 3.7,
  "StationName": "MRC35149",
  "TaskName": "bodyodor",
  "TotalReadoutTime": 0.0340802,
  "TxRefAmp": 278.639,
  "VendorReportedEchoSpacing": 0.00048,
  "dcmmeta_affine": [
    [-2.9989235401153564, -0.060398444533348083, 0.0653781145811081, 108.46137237548828],
    [-0.07974986732006073, 2.480463981628418, -2.07879376411438, -51.78913497924805],
    [0.009895171038806438, 1.6863127946853638, 3.0601212978363037, -105.46907806396484],
    [0.0, 0.0, 0.0, 1.0]
],
  "dcmmeta_reorient_transform": [
    [0.0, -1.0, 0.0, 71.0],
    [1.0, 0.0, 0.0, 0.0],
    [0.0, 0.0, 1.0, 0.0],
    [0.0, 0.0, 0.0, 1.0]
],
  "dcmmeta_shape": [72, 72, 34, 450],
  "dcmmeta_slice_dim": 2,
  "dcmmeta_version": 0.6,
  "global": {
    "const": {
      "AcquisitionMatrix": [72, 0, 0, 72],
      "AngioFlag": "N",
      "BitsAllocated": 16,
      "BitsStored": 12,
      "Columns": 432,
      "EchoNumbers": 1,
      "EchoTime": 25.0,
      "EchoTrainLength": 1,
      "FlipAngle": 75.0,
      "HighBit": 11,
      "ImageOrientationPatient": [0.99964116028737, 0.02658328948997, 0.0032983903959, -0.0201328147714, 0.82682128922291, -0.5621042834361],
      "ImagePositionPatient": [-633.10758865285, -585.16227204745, 316.01431881819],
      "ImageType": [
        "ORIGINAL",
        "PRIMARY",
        "M",
        "ND",
        "MOSAIC"
],
      "ImagedNucleus": "1H",
      "ImagingFrequency": 123.254569,
      "InPlanePhaseEncodingDirection": "COL",
      "MRAcquisitionType": "2D",
      "MagneticFieldStrength": 3.0,
      "Manufacturer": "SIEMENS",
      "ManufacturerModelName": "TrioTim",
      "Modality": "MR",
      "NumberOfAverages": 1.0,
      "NumberOfPhaseEncodingSteps": 72,
      "PercentPhaseFieldOfView": 100.0,
      "PercentSampling": 100.0,
      "PerformedProcedureStepStartTime": "110643.593000",
      "PhotometricInterpretation": "MONOCHROME2",
      "PixelBandwidth": 2395.0,
      "PixelRepresentation": 0,
      "PixelSpacing": [3.0, 3.0],
      "ProtocolName": "exp1_30_to_AC-PC",
      "RepetitionTime": 2000.0,
      "Rows": 432,
      "SAR": 0.11364672437423,
      "SamplesPerPixel": 1,
      "ScanOptions": "FS",
      "ScanningSequence": "EP",
      "SequenceName": "*epfid2d1_72",
      "SequenceVariant": "SK",
      "SeriesDescription": "exp1_30_to_AC-PC",
      "SeriesNumber": 5,
      "SeriesTime": "115203.515000",
      "SliceLocation": -56.215735767811,
      "SliceThickness": 3.7000000476837,
      "SmallestImagePixelValue": 0,
      "SoftwareVersions": "syngo MR B17",
      "SpacingBetweenSlices": 3.700000056719,
      "SpecificCharacterSet": "ISO_IR 100",
      "StudyID": "1",
      "StudyTime": "110643.546000",
      "TransmitCoilName": "Body",
      "VariableFlipAngleFlag": "N",
      "WindowCenterWidthExplanation": "Algo1",
      "dBdt": 0.0},
    "slices": {}
  },
  "time": {
    "samples": {
      "AcquisitionNumber": [1, 2, 3, 4, 5, 6, 7, 8, 9, 10, 11, 12, 13, 14, 15, 16, 17, 18, 19, 20, 21, 22, 23, 24, 25, 26, 27, 28, 29, 30, 31, 32, 33, 34, 35, 36, 37, 38, 39, 40, 41, 42, 43, 44, 45, 46, 47, 48, 49, 50, 51, 52, 53, 54, 55, 56, 57, 58, 59, 60, 61, 62, 63, 64, 65, 66, 67, 68, 69, 70, 71, 72, 73, 74, 75, 76, 77, 78, 79, 80, 81, 82, 83, 84, 85, 86, 87, 88, 89, 90, 91, 92, 93, 94, 95, 96, 97, 98, 99, 100, 101, 102, 103, 104, 105, 106, 107, 108, 109, 110, 111, 112, 113, 114, 115, 116, 117, 118, 119, 120, 121, 122, 123, 124, 125, 126, 127, 128, 129, 130, 131, 132, 133, 134, 135, 136, 137, 138, 139, 140, 141, 142, 143, 144, 145, 146, 147, 148, 149, 150, 151, 152, 153, 154, 155, 156, 157, 158, 159, 160, 161, 162, 163, 164, 165, 166, 167, 168, 169, 170, 171, 172, 173, 174, 175, 176, 177, 178, 179, 180, 181, 182, 183, 184, 185, 186, 187, 188, 189, 190, 191, 192, 193, 194, 195, 196, 197, 198, 199, 200, 201, 202, 203, 204, 205, 206, 207, 208, 209, 210, 211, 212, 213, 214, 215, 216, 217, 218, 219, 220, 221, 222, 223, 224, 225, 226, 227, 228, 229, 230, 231, 232, 233, 234, 235, 236, 237, 238, 239, 240, 241, 242, 243, 244, 245, 246, 247, 248, 249, 250, 251, 252, 253, 254, 255, 256, 257, 258, 259, 260, 261, 262, 263, 264, 265, 266, 267, 268, 269, 270, 271, 272, 273, 274, 275, 276, 277, 278, 279, 280, 281, 282, 283, 284, 285, 286, 287, 288, 289, 290, 291, 292, 293, 294, 295, 296, 297, 298, 299, 300, 301, 302, 303, 304, 305, 306, 307, 308, 309, 310, 311, 312, 313, 314, 315, 316, 317, 318, 319, 320, 321, 322, 323, 324, 325, 326, 327, 328, 329, 330, 331, 332, 333, 334, 335, 336, 337, 338, 339, 340, 341, 342, 343, 344, 345, 346, 347, 348, 349, 350, 351, 352, 353, 354, 355, 356, 357, 358, 359, 360, 361, 362, 363, 364, 365, 366, 367, 368, 369, 370, 371, 372, 373, 374, 375, 376, 377, 378, 379, 380, 381, 382, 383, 384, 385, 386, 387, 388, 389, 390, 391, 392, 393, 394, 395, 396, 397, 398, 399, 400, 401, 402, 403, 404, 405, 406, 407, 408, 409, 410, 411, 412, 413, 414, 415, 416, 417, 418, 419, 420, 421, 422, 423, 424, 425, 426, 427, 428, 429, 430, 431, 432, 433, 434, 435, 436, 437, 438, 439, 440, 441, 442, 443, 444, 445, 446, 447, 448, 449, 450],
      "AcquisitionTime": ["115113.842500", "115115.850000", "115117.860000", "115119.867500", "115121.875000", "115123.882500", "115125.890000", "115127.900000", "115129.907500", "115131.915000", "115133.922500", "115135.932500", "115137.940000", "115139.947500", "115141.955000", "115143.962500", "115145.972500", "115147.980000", "115149.987500", "115151.995000", "115154.002500", "115156.012500", "115158.020000", "115200.027500", "115202.035000", "115204.042500", "115206.052500", "115208.060000", "115210.067500", "115212.075000", "115214.085000", "115216.092500", "115218.100000", "115220.107500", "115222.115000", "115224.125000", "115226.132500", "115228.140000", "115230.147500", "115232.155000", "115234.165000", "115236.172500", "115238.180000", "115240.187500", "115242.197500", "115244.205000", "115246.212500", "115248.220000", "115250.227500", "115252.237500", "115254.245000", "115256.252500", "115258.260000", "115300.267500", "115302.277500", "115304.285000", "115306.292500", "115308.300000", "115310.310000", "115312.317500", "115314.325000", "115316.332500", "115318.340000", "115320.350000", "115322.357500", "115324.365000", "115326.372500", "115328.380000", "115330.390000", "115332.397500", "115334.405000", "115336.412500", "115338.420000", "115340.430000", "115342.437500", "115344.445000", "115346.452500", "115348.462500", "115350.470000", "115352.477500", "115354.485000", "115356.492500", "115358.502500", "115400.510000", "115402.517500", "115404.525000", "115406.532500", "115408.542500", "115410.550000", "115412.557500", "115414.565000", "115416.575000", "115418.582500", "115420.590000", "115422.597500", "115424.605000", "115426.615000", "115428.622500", "115430.630000", "115432.637500", "115434.645000", "115436.655000", "115438.662500", "115440.670000", "115442.677500", "115444.687500", "115446.695000", "115448.702500", "115450.710000", "115452.717500", "115454.727500", "115456.735000", "115458.742500", "115500.750000", "115502.757500", "115504.767500", "115506.775000", "115508.782500", "115510.790000", "115512.797500", "115514.807500", "115516.815000", "115518.822500", "115520.830000", "115522.840000", "115524.847500", "115526.855000", "115528.862500", "115530.870000", "115532.880000", "115534.887500", "115536.895000", "115538.902500", "115540.910000", "115542.920000", "115544.927500", "115546.935000", "115548.942500", "115550.952500", "115552.960000", "115554.967500", "115556.975000", "115558.982500", "115600.992500", "115603.000000", "115605.007500", "115607.015000", "115609.022500", "115611.032500", "115613.040000", "115615.047500", "115617.055000", "115619.065000", "115621.072500", "115623.080000", "115625.087500", "115627.095000", "115629.105000", "115631.112500", "115633.120000", "115635.127500", "115637.135000", "115639.145000", "115641.152500", "115643.160000", "115645.167500", "115647.175000", "115649.185000", "115651.192500", "115653.200000", "115655.207500", "115657.217500", "115659.225000", "115701.232500", "115703.240000", "115705.247500", "115707.257500", "115709.265000", "115711.272500", "115713.280000", "115715.287500", "115717.297500", "115719.305000", "115721.312500", "115723.320000", "115725.330000", "115727.337500", "115729.345000", "115731.352500", "115733.360000", "115735.370000", "115737.377500", "115739.385000", "115741.392500", "115743.400000", "115745.410000", "115747.417500", "115749.425000", "115751.432500", "115753.442500", "115755.450000", "115757.457500", "115759.465000", "115801.472500", "115803.482500", "115805.490000", "115807.497500", "115809.505000", "115811.512500", "115813.522500", "115815.530000", "115817.537500", "115819.545000", "115821.555000", "115823.562500", "115825.570000", "115827.577500", "115829.585000", "115831.595000", "115833.602500", "115835.610000", "115837.617500", "115839.625000", "115841.635000", "115843.642500", "115845.650000", "115847.657500", "115849.665000", "115851.675000", "115853.682500", "115855.690000", "115857.697500", "115859.707500", "115901.715000", "115903.722500", "115905.730000", "115907.737500", "115909.747500", "115911.755000", "115913.762500", "115915.770000", "115917.777500", "115919.787500", "115921.795000", "115923.802500", "115925.810000", "115927.820000", "115929.827500", "115931.835000", "115933.842500", "115935.850000", "115937.860000", "115939.867500", "115941.875000", "115943.882500", "115945.890000", "115947.900000", "115949.907500", "115951.915000", "115953.922500", "115955.932500", "115957.940000", "115959.947500", "120001.955000", "120003.962500", "120005.972500", "120007.980000", "120009.987500", "120011.995000", "120014.002500", "120016.012500", "120018.020000", "120020.027500", "120022.035000", "120024.042500", "120026.052500", "120028.060000", "120030.067500", "120032.075000", "120034.085000", "120036.092500", "120038.100000", "120040.107500", "120042.115000", "120044.125000", "120046.132500", "120048.140000", "120050.147500", "120052.155000", "120054.165000", "120056.172500", "120058.180000", "120100.187500", "120102.197500", "120104.205000", "120106.212500", "120108.220000", "120110.227500", "120112.237500", "120114.245000", "120116.252500", "120118.260000", "120120.267500", "120122.277500", "120124.285000", "120126.292500", "120128.300000", "120130.310000", "120132.317500", "120134.325000", "120136.332500", "120138.340000", "120140.350000", "120142.357500", "120144.365000", "120146.372500", "120148.380000", "120150.390000", "120152.397500", "120154.405000", "120156.412500", "120158.420000", "120200.430000", "120202.437500", "120204.445000", "120206.452500", "120208.462500", "120210.470000", "120212.477500", "120214.485000", "120216.492500", "120218.502500", "120220.510000", "120222.517500", "120224.525000", "120226.532500", "120228.542500", "120230.550000", "120232.557500", "120234.565000", "120236.575000", "120238.582500", "120240.590000", "120242.597500", "120244.605000", "120246.615000", "120248.622500", "120250.630000", "120252.637500", "120254.645000", "120256.655000", "120258.662500", "120300.670000", "120302.677500", "120304.687500", "120306.695000", "120308.702500", "120310.710000", "120312.717500", "120314.727500", "120316.735000", "120318.742500", "120320.750000", "120322.757500", "120324.767500", "120326.775000", "120328.782500", "120330.790000", "120332.797500", "120334.807500", "120336.815000", "120338.822500", "120340.830000", "120342.840000", "120344.847500", "120346.855000", "120348.862500", "120350.870000", "120352.880000", "120354.887500", "120356.895000", "120358.902500", "120400.910000", "120402.920000", "120404.927500", "120406.935000", "120408.942500", "120410.952500", "120412.960000", "120414.967500", "120416.975000", "120418.982500", "120420.992500", "120423.000000", "120425.007500", "120427.015000", "120429.022500", "120431.032500", "120433.040000", "120435.047500", "120437.055000", "120439.065000", "120441.072500", "120443.080000", "120445.087500", "120447.095000", "120449.105000", "120451.112500", "120453.120000", "120455.127500", "120457.135000", "120459.145000", "120501.152500", "120503.160000", "120505.167500", "120507.175000", "120509.185000", "120511.192500", "120513.200000", "120515.207500", "120517.217500", "120519.225000", "120521.232500", "120523.240000", "120525.247500", "120527.257500", "120529.265000", "120531.272500", "120533.280000", "120535.287500", "120537.297500", "120539.305000", "120541.312500", "120543.320000", "120545.330000", "120547.337500", "120549.345000", "120551.352500", "120553.360000", "120555.370000", "120557.377500", "120559.385000", "120601.392500", "120603.400000", "120605.410000", "120607.417500", "120609.425000", "120611.432500", "120613.442500", "120615.450000"],
      "ContentTime": ["115203.515000", "115203.531000", "115203.531000", "115203.531000", "115203.531000", "115203.531000", "115203.531000", "115203.531000", "115203.546000", "115203.546000", "115203.546000", "115203.546000", "115203.546000", "115203.562000", "115203.562000", "115203.562000", "115203.578000", "115203.578000", "115203.578000", "115203.578000", "115203.578000", "115203.593000", "115203.593000", "115203.593000", "115243.515000", "115243.515000", "115243.515000", "115243.531000", "115243.531000", "115243.531000", "115243.531000", "115243.531000", "115243.531000", "115243.531000", "115243.546000", "115243.546000", "115243.546000", "115243.546000", "115243.546000", "115243.546000", "115243.562000", "115243.562000", "115243.562000", "115243.578000", "115323.515000", "115323.515000", "115323.515000", "115323.531000", "115323.531000", "115323.546000", "115323.546000", "115323.546000", "115323.546000", "115323.546000", "115323.546000", "115323.562000", "115323.562000", "115323.562000", "115323.562000", "115323.562000", "115323.562000", "115323.562000", "115323.578000", "115323.578000", "115403.515000", "115403.515000", "115403.515000", "115403.515000", "115403.515000", "115403.531000", "115403.531000", "115403.531000", "115403.531000", "115403.531000", "115403.531000", "115403.546000", "115403.546000", "115403.546000", "115403.546000", "115403.546000", "115403.546000", "115403.546000", "115403.562000", "115403.562000", "115443.515000", "115443.515000", "115443.515000", "115443.515000", "115443.515000", "115443.531000", "115443.531000", "115443.531000", "115443.531000", "115443.531000", "115443.531000", "115443.546000", "115443.546000", "115443.546000", "115443.546000", "115443.546000", "115443.546000", "115443.546000", "115443.562000", "115443.562000", "115523.515000", "115523.515000", "115523.515000", "115523.531000", "115523.531000", "115523.546000", "115523.546000", "115523.546000", "115523.546000", "115523.546000", "115523.546000", "115523.546000", "115523.562000", "115523.562000", "115523.562000", "115523.562000", "115523.562000", "115523.562000", "115523.562000", "115523.578000", "115603.515000", "115603.515000", "115603.531000", "115603.531000", "115603.531000", "115603.531000", "115603.531000", "115603.546000", "115603.546000", "115603.546000", "115603.546000", "115603.546000", "115603.562000", "115603.562000", "115603.562000", "115603.562000", "115603.562000", "115603.562000", "115603.562000", "115603.578000", "115643.515000", "115643.515000", "115643.515000", "115643.515000", "115643.515000", "115643.515000", "115643.531000", "115643.531000", "115643.531000", "115643.531000", "115643.531000", "115643.531000", "115643.546000", "115643.546000", "115643.546000", "115643.546000", "115643.546000", "115643.546000", "115643.546000", "115643.562000", "115723.515000", "115723.515000", "115723.515000", "115723.515000", "115723.515000", "115723.515000", "115723.531000", "115723.531000", "115723.531000", "115723.531000", "115723.546000", "115723.546000", "115723.546000", "115723.546000", "115723.546000", "115723.546000", "115723.562000", "115723.562000", "115723.562000", "115723.562000", "115803.515000", "115803.515000", "115803.515000", "115803.515000", "115803.515000", "115803.515000", "115803.531000", "115803.531000", "115803.531000", "115803.546000", "115803.546000", "115803.546000", "115803.546000", "115803.546000", "115803.546000", "115803.546000", "115803.562000", "115803.562000", "115803.562000", "115803.562000", "115843.515000", "115843.515000", "115843.515000", "115843.515000", "115843.515000", "115843.531000", "115843.531000", "115843.531000", "115843.531000", "115843.531000", "115843.531000", "115843.546000", "115843.546000", "115843.546000", "115843.546000", "115843.546000", "115843.546000", "115843.562000", "115843.562000", "115843.578000", "115923.515000", "115923.515000", "115923.515000", "115923.515000", "115923.515000", "115923.531000", "115923.531000", "115923.531000", "115923.531000", "115923.531000", "115923.531000", "115923.531000", "115923.546000", "115923.546000", "115923.546000", "115923.546000", "115923.546000", "115923.546000", "115923.546000", "115923.562000", "120003.515000", "120003.515000", "120003.515000", "120003.515000", "120003.515000", "120003.531000", "120003.531000", "120003.531000", "120003.531000", "120003.546000", "120003.546000", "120003.546000", "120003.546000", "120003.546000", "120003.546000", "120003.546000", "120003.562000", "120003.562000", "120003.562000", "120003.562000", "120043.515000", "120043.515000", "120043.515000", "120043.515000", "120043.531000", "120043.531000", "120043.531000", "120043.546000", "120043.546000", "120043.546000", "120043.546000", "120043.562000", "120043.562000", "120043.562000", "120043.562000", "120043.578000", "120043.578000", "120043.578000", "120043.578000", "120043.578000", "120123.515000", "120123.515000", "120123.515000", "120123.515000", "120123.515000", "120123.531000", "120123.531000", "120123.531000", "120123.531000", "120123.531000", "120123.531000", "120123.531000", "120123.546000", "120123.546000", "120123.546000", "120123.546000", "120123.546000", "120123.546000", "120123.546000", "120123.562000", "120203.515000", "120203.515000", "120203.515000", "120203.515000", "120203.515000", "120203.531000", "120203.531000", "120203.531000", "120203.531000", "120203.531000", "120203.531000", "120203.546000", "120203.546000", "120203.546000", "120203.546000", "120203.546000", "120203.546000", "120203.546000", "120203.562000", "120203.562000", "120243.515000", "120243.515000", "120243.515000", "120243.515000", "120243.531000", "120243.531000", "120243.531000", "120243.531000", "120243.546000", "120243.546000", "120243.546000", "120243.546000", "120243.546000", "120243.562000", "120243.562000", "120243.562000", "120243.578000", "120243.578000", "120243.578000", "120243.578000", "120323.515000", "120323.515000", "120323.515000", "120323.515000", "120323.515000", "120323.531000", "120323.531000", "120323.531000", "120323.531000", "120323.531000", "120323.531000", "120323.531000", "120323.546000", "120323.546000", "120323.546000", "120323.546000", "120323.562000", "120323.562000", "120323.562000", "120323.562000", "120403.515000", "120403.515000", "120403.515000", "120403.515000", "120403.515000", "120403.531000", "120403.531000", "120403.531000", "120403.531000", "120403.531000", "120403.531000", "120403.546000", "120403.546000", "120403.546000", "120403.546000", "120403.546000", "120403.562000", "120403.562000", "120403.562000", "120403.562000", "120443.515000", "120443.515000", "120443.515000", "120443.515000", "120443.515000", "120443.531000", "120443.531000", "120443.531000", "120443.531000", "120443.531000", "120443.531000", "120443.546000", "120443.546000", "120443.546000", "120443.546000", "120443.546000", "120443.546000", "120443.546000", "120443.562000", "120443.562000", "120523.515000", "120523.515000", "120523.515000", "120523.515000", "120523.515000", "120523.531000", "120523.531000", "120523.531000", "120523.531000", "120523.531000", "120523.531000", "120523.546000", "120523.546000", "120523.546000", "120523.546000", "120523.546000", "120523.546000", "120523.546000", "120523.562000", "120523.562000", "120603.515000", "120603.515000", "120603.515000", "120603.531000", "120603.531000", "120603.531000", "120603.531000", "120603.531000", "120603.531000", "120603.531000", "120603.546000", "120603.546000", "120603.546000", "120603.546000", "120603.562000", "120603.562000", "120603.562000", "120603.562000", "120603.562000", "120603.562000", "120613.578000", "120613.578000", "120613.578000", "120613.578000", "120613.593000", "120613.593000"],
