{
  "AcquisitionMatrixPE": 72,
  "AcquisitionNumber": 1,
  "AcquisitionTime": "10:35:58.140000",
  "BandwidthPerPixelPhaseEncode": 28.935,
  "BaseResolution": 72,
  "CoilString": "C:HEA;HEP",
  "ConversionSoftware": "dcm2niix",
  "ConversionSoftwareVersion": "v1.0.20190410  GCC6.3.0",
  "DerivedVendorReportedEchoSpacing": 0.000480003,
  "DeviceSerialNumber": "35149",
  "DwellTime": 2.9e-06,
  "EchoTime": 0.025,
  "EffectiveEchoSpacing": 0.000480003,
  "FlipAngle": 75,
  "ImageOrientationPatientDICOM": [0.997842, 0.0588626, 0.029112, -0.0407743, 0.902872, -0.427971],
  "ImageType": [
    "ORIGINAL",
    "PRIMARY",
    "M",
    "ND",
    "MOSAIC"
],
  "ImagingFrequency": 123.255,
  "InPlanePhaseEncodingDirectionDICOM": "COL",
  "InstitutionAddress": "Street_StreetNo_Rehovot_91E162_District_IL_ZIP",
  "InstitutionName": "Weizmann",
  "InstitutionalDepartmentName": "Department",
  "MRAcquisitionType": "2D",
  "MagneticFieldStrength": 3,
  "Manufacturer": "Siemens",
  "ManufacturersModelName": "TrioTim",
  "Modality": "MR",
  "PartialFourier": 1,
  "PatientPosition": "HFS",
  "PercentPhaseFOV": 100,
  "PhaseEncodingDirection": "j-",
  "PhaseEncodingSteps": 72,
  "PhaseResolution": 1,
  "PixelBandwidth": 2395,
  "ProcedureStepDescription": "Weizmann_Sobel",
  "ProtocolName": "exp1_30_to_AC-PC",
  "PulseSequenceDetails": "%SiemensSeq%_ep2d_pace",
  "ReceiveCoilName": "HeadMatrix",
  "ReconMatrixPE": 72,
  "RepetitionTime": 2,
  "SAR": 0.138129,
  "ScanOptions": "FS",
  "ScanningSequence": "EP",
  "SequenceName": "_epfid2d1_72",
  "SequenceVariant": "SK",
  "SeriesDescription": "exp1_30_to_AC-PC",
  "SeriesNumber": 3,
  "ShimSetting": [2356, 9507, -5464, 973, 321, -261, -409, 64],
  "SliceThickness": 3.7,
  "SliceTiming": [0.9925, 0, 1.0525, 0.0575, 1.11, 0.115, 1.1675, 0.175, 1.2275, 0.2325, 1.285, 0.2925, 1.3425, 0.35, 1.4025, 0.4075, 1.46, 0.4675, 1.52, 0.525, 1.5775, 0.5825, 1.635, 0.6425, 1.695, 0.7, 1.7525, 0.76, 1.81, 0.8175, 1.87, 0.875, 1.9275, 0.935],
  "SoftwareVersions": "syngo_MR_B17",
  "SpacingBetweenSlices": 3.7,
  "StationName": "MRC35149",
  "TaskName": "blank",
  "TotalReadoutTime": 0.0340802,
  "TxRefAmp": 296.453,
  "VendorReportedEchoSpacing": 0.00048,
  "dcmmeta_affine": [
    [-2.9935245513916016, -0.1223229467868805, 0.19046084582805634, 113.1548080444336],
    [-0.1765877604484558, 2.7086169719696045, -1.5756820440292358, -47.86250686645508],
    [0.08733606338500977, 1.2839124202728271, 3.342297077178955, -92.65277099609375],
    [0.0, 0.0, 0.0, 1.0]
],
  "dcmmeta_reorient_transform": [
    [0.0, -1.0, 0.0, 71.0],
    [1.0, 0.0, 0.0, 0.0],
    [0.0, 0.0, 1.0, 0.0],
    [0.0, 0.0, 0.0, 1.0]
],
  "dcmmeta_shape": [72, 72, 34, 450],
  "dcmmeta_slice_dim": 2,
  "dcmmeta_version": 0.6,
  "global": {
    "const": {
      "AcquisitionMatrix": [72, 0, 0, 72],
      "AngioFlag": "N",
      "BitsAllocated": 16,
      "BitsStored": 12,
      "Columns": 432,
      "EchoNumbers": 1,
      "EchoTime": 25.0,
      "EchoTrainLength": 1,
      "FlipAngle": 75.0,
      "HighBit": 11,
      "ImageOrientationPatient": [0.99784151353277, 0.05886258673463, 0.02911202077379, -0.0407743168361, 0.90287233154258, -0.4279708027674],
      "ImagePositionPatient": [-621.28616460566, -663.78615529681, 213.88875153511],
      "ImageType": [
        "ORIGINAL",
        "PRIMARY",
        "M",
        "ND",
        "MOSAIC"
],
      "ImagedNucleus": "1H",
      "ImagingFrequency": 123.25459,
      "InPlanePhaseEncodingDirection": "COL",
      "MRAcquisitionType": "2D",
      "MagneticFieldStrength": 3.0,
      "Manufacturer": "SIEMENS",
      "ManufacturerModelName": "TrioTim",
      "Modality": "MR",
      "NumberOfAverages": 1.0,
      "NumberOfPhaseEncodingSteps": 72,
      "PercentPhaseFieldOfView": 100.0,
      "PercentSampling": 100.0,
      "PerformedProcedureStepStartTime": "102512.187000",
      "PhotometricInterpretation": "MONOCHROME2",
      "PixelBandwidth": 2395.0,
      "PixelRepresentation": 0,
      "PixelSpacing": [3.0, 3.0],
      "ProtocolName": "exp1_30_to_AC-PC",
      "RepetitionTime": 2000.0,
      "Rows": 432,
      "SAR": 0.13812851169847,
      "SamplesPerPixel": 1,
      "ScanOptions": "FS",
      "ScanningSequence": "EP",
      "SequenceName": "*epfid2d1_72",
      "SequenceVariant": "SK",
      "SeriesDescription": "exp1_30_to_AC-PC",
      "SeriesNumber": 3,
      "SeriesTime": "103652.531000",
      "SliceLocation": -57.48795890007,
      "SliceThickness": 3.7000000476837,
      "SmallestImagePixelValue": 0,
      "SoftwareVersions": "syngo MR B17",
      "SpacingBetweenSlices": 3.6999999125039,
      "SpecificCharacterSet": "ISO_IR 100",
      "StudyID": "1",
      "StudyTime": "102512.109000",
      "TransmitCoilName": "Body",
      "VariableFlipAngleFlag": "N",
      "WindowCenterWidthExplanation": "Algo1",
      "dBdt": 0.0},
    "slices": {}
  },
  "time": {
    "samples": {
      "AcquisitionNumber": [1, 2, 3, 4, 5, 6, 7, 8, 9, 10, 11, 12, 13, 14, 15, 16, 17, 18, 19, 20, 21, 22, 23, 24, 25, 26, 27, 28, 29, 30, 31, 32, 33, 34, 35, 36, 37, 38, 39, 40, 41, 42, 43, 44, 45, 46, 47, 48, 49, 50, 51, 52, 53, 54, 55, 56, 57, 58, 59, 60, 61, 62, 63, 64, 65, 66, 67, 68, 69, 70, 71, 72, 73, 74, 75, 76, 77, 78, 79, 80, 81, 82, 83, 84, 85, 86, 87, 88, 89, 90, 91, 92, 93, 94, 95, 96, 97, 98, 99, 100, 101, 102, 103, 104, 105, 106, 107, 108, 109, 110, 111, 112, 113, 114, 115, 116, 117, 118, 119, 120, 121, 122, 123, 124, 125, 126, 127, 128, 129, 130, 131, 132, 133, 134, 135, 136, 137, 138, 139, 140, 141, 142, 143, 144, 145, 146, 147, 148, 149, 150, 151, 152, 153, 154, 155, 156, 157, 158, 159, 160, 161, 162, 163, 164, 165, 166, 167, 168, 169, 170, 171, 172, 173, 174, 175, 176, 177, 178, 179, 180, 181, 182, 183, 184, 185, 186, 187, 188, 189, 190, 191, 192, 193, 194, 195, 196, 197, 198, 199, 200, 201, 202, 203, 204, 205, 206, 207, 208, 209, 210, 211, 212, 213, 214, 215, 216, 217, 218, 219, 220, 221, 222, 223, 224, 225, 226, 227, 228, 229, 230, 231, 232, 233, 234, 235, 236, 237, 238, 239, 240, 241, 242, 243, 244, 245, 246, 247, 248, 249, 250, 251, 252, 253, 254, 255, 256, 257, 258, 259, 260, 261, 262, 263, 264, 265, 266, 267, 268, 269, 270, 271, 272, 273, 274, 275, 276, 277, 278, 279, 280, 281, 282, 283, 284, 285, 286, 287, 288, 289, 290, 291, 292, 293, 294, 295, 296, 297, 298, 299, 300, 301, 302, 303, 304, 305, 306, 307, 308, 309, 310, 311, 312, 313, 314, 315, 316, 317, 318, 319, 320, 321, 322, 323, 324, 325, 326, 327, 328, 329, 330, 331, 332, 333, 334, 335, 336, 337, 338, 339, 340, 341, 342, 343, 344, 345, 346, 347, 348, 349, 350, 351, 352, 353, 354, 355, 356, 357, 358, 359, 360, 361, 362, 363, 364, 365, 366, 367, 368, 369, 370, 371, 372, 373, 374, 375, 376, 377, 378, 379, 380, 381, 382, 383, 384, 385, 386, 387, 388, 389, 390, 391, 392, 393, 394, 395, 396, 397, 398, 399, 400, 401, 402, 403, 404, 405, 406, 407, 408, 409, 410, 411, 412, 413, 414, 415, 416, 417, 418, 419, 420, 421, 422, 423, 424, 425, 426, 427, 428, 429, 430, 431, 432, 433, 434, 435, 436, 437, 438, 439, 440, 441, 442, 443, 444, 445, 446, 447, 448, 449, 450],
      "AcquisitionTime": ["103558.140000", "103600.147500", "103602.157500", "103604.165000", "103606.172500", "103608.180000", "103610.187500", "103612.197500", "103614.205000", "103616.212500", "103618.220000", "103620.227500", "103622.237500", "103624.245000", "103626.252500", "103628.260000", "103630.270000", "103632.277500", "103634.285000", "103636.292500", "103638.300000", "103640.310000", "103642.317500", "103644.325000", "103646.332500", "103648.340000", "103650.350000", "103652.357500", "103654.365000", "103656.372500", "103658.382500", "103700.390000", "103702.397500", "103704.405000", "103706.412500", "103708.422500", "103710.430000", "103712.437500", "103714.445000", "103716.452500", "103718.462500", "103720.470000", "103722.477500", "103724.485000", "103726.495000", "103728.502500", "103730.510000", "103732.517500", "103734.525000", "103736.535000", "103738.542500", "103740.550000", "103742.557500", "103744.565000", "103746.575000", "103748.582500", "103750.590000", "103752.597500", "103754.607500", "103756.615000", "103758.622500", "103800.630000", "103802.637500", "103804.647500", "103806.655000", "103808.662500", "103810.670000", "103812.677500", "103814.687500", "103816.695000", "103818.702500", "103820.710000", "103822.717500", "103824.727500", "103826.735000", "103828.742500", "103830.750000", "103832.760000", "103834.767500", "103836.775000", "103838.782500", "103840.790000", "103842.800000", "103844.807500", "103846.815000", "103848.822500", "103850.830000", "103852.840000", "103854.847500", "103856.855000", "103858.862500", "103900.872500", "103902.880000", "103904.887500", "103906.895000", "103908.902500", "103910.912500", "103912.920000", "103914.927500", "103916.935000", "103918.942500", "103920.952500", "103922.960000", "103924.967500", "103926.975000", "103928.985000", "103930.992500", "103933.000000", "103935.007500", "103937.015000", "103939.025000", "103941.032500", "103943.040000", "103945.047500", "103947.055000", "103949.065000", "103951.072500", "103953.080000", "103955.087500", "103957.095000", "103959.105000", "104001.112500", "104003.120000", "104005.127500", "104007.137500", "104009.145000", "104011.152500", "104013.160000", "104015.167500", "104017.177500", "104019.185000", "104021.192500", "104023.200000", "104025.207500", "104027.217500", "104029.225000", "104031.232500", "104033.240000", "104035.250000", "104037.257500", "104039.265000", "104041.272500", "104043.280000", "104045.290000", "104047.297500", "104049.305000", "104051.312500", "104053.320000", "104055.330000", "104057.337500", "104059.345000", "104101.352500", "104103.362500", "104105.370000", "104107.377500", "104109.385000", "104111.392500", "104113.402500", "104115.410000", "104117.417500", "104119.425000", "104121.432500", "104123.442500", "104125.450000", "104127.457500", "104129.465000", "104131.472500", "104133.482500", "104135.490000", "104137.497500", "104139.505000", "104141.515000", "104143.522500", "104145.530000", "104147.537500", "104149.545000", "104151.555000", "104153.562500", "104155.570000", "104157.577500", "104159.585000", "104201.595000", "104203.602500", "104205.610000", "104207.617500", "104209.627500", "104211.635000", "104213.642500", "104215.650000", "104217.657500", "104219.667500", "104221.675000", "104223.682500", "104225.690000", "104227.697500", "104229.707500", "104231.715000", "104233.722500", "104235.730000", "104237.740000", "104239.747500", "104241.755000", "104243.762500", "104245.770000", "104247.780000", "104249.787500", "104251.795000", "104253.802500", "104255.810000", "104257.820000", "104259.827500", "104301.835000", "104303.842500", "104305.850000", "104307.860000", "104309.867500", "104311.875000", "104313.882500", "104315.892500", "104317.900000", "104319.907500", "104321.915000", "104323.922500", "104325.932500", "104327.940000", "104329.947500", "104331.955000", "104333.962500", "104335.972500", "104337.980000", "104339.987500", "104341.995000", "104344.005000", "104346.012500", "104348.020000", "104350.027500", "104352.035000", "104354.045000", "104356.052500", "104358.060000", "104400.067500", "104402.075000", "104404.085000", "104406.092500", "104408.100000", "104410.107500", "104412.117500", "104414.125000", "104416.132500", "104418.140000", "104420.147500", "104422.157500", "104424.165000", "104426.172500", "104428.180000", "104430.187500", "104432.197500", "104434.205000", "104436.212500", "104438.220000", "104440.227500", "104442.237500", "104444.245000", "104446.252500", "104448.260000", "104450.270000", "104452.277500", "104454.285000", "104456.292500", "104458.300000", "104500.310000", "104502.317500", "104504.325000", "104506.332500", "104508.340000", "104510.350000", "104512.357500", "104514.365000", "104516.372500", "104518.382500", "104520.390000", "104522.397500", "104524.405000", "104526.412500", "104528.422500", "104530.430000", "104532.437500", "104534.445000", "104536.452500", "104538.462500", "104540.470000", "104542.477500", "104544.485000", "104546.495000", "104548.502500", "104550.510000", "104552.517500", "104554.525000", "104556.535000", "104558.542500", "104600.550000", "104602.557500", "104604.565000", "104606.575000", "104608.582500", "104610.590000", "104612.597500", "104614.607500", "104616.615000", "104618.622500", "104620.630000", "104622.637500", "104624.647500", "104626.655000", "104628.662500", "104630.670000", "104632.677500", "104634.687500", "104636.695000", "104638.702500", "104640.710000", "104642.717500", "104644.727500", "104646.735000", "104648.742500", "104650.750000", "104652.760000", "104654.767500", "104656.775000", "104658.782500", "104700.790000", "104702.800000", "104704.807500", "104706.815000", "104708.822500", "104710.830000", "104712.840000", "104714.847500", "104716.855000", "104718.862500", "104720.872500", "104722.880000", "104724.887500", "104726.895000", "104728.902500", "104730.912500", "104732.920000", "104734.927500", "104736.935000", "104738.942500", "104740.952500", "104742.960000", "104744.967500", "104746.975000", "104748.985000", "104750.992500", "104753.000000", "104755.007500", "104757.015000", "104759.025000", "104801.032500", "104803.040000", "104805.047500", "104807.055000", "104809.065000", "104811.072500", "104813.080000", "104815.087500", "104817.095000", "104819.105000", "104821.112500", "104823.120000", "104825.127500", "104827.137500", "104829.145000", "104831.152500", "104833.160000", "104835.167500", "104837.177500", "104839.185000", "104841.192500", "104843.200000", "104845.207500", "104847.217500", "104849.225000", "104851.232500", "104853.240000", "104855.250000", "104857.257500", "104859.265000", "104901.272500", "104903.280000", "104905.290000", "104907.297500", "104909.305000", "104911.312500", "104913.320000", "104915.330000", "104917.337500", "104919.345000", "104921.352500", "104923.362500", "104925.370000", "104927.377500", "104929.385000", "104931.392500", "104933.402500", "104935.410000", "104937.417500", "104939.425000", "104941.432500", "104943.442500", "104945.450000", "104947.457500", "104949.465000", "104951.472500", "104953.482500", "104955.490000", "104957.497500", "104959.505000", "105001.515000", "105003.522500", "105005.530000", "105007.537500", "105009.545000", "105011.555000", "105013.562500", "105015.570000", "105017.577500", "105019.585000", "105021.595000", "105023.602500", "105025.610000", "105027.617500", "105029.627500", "105031.635000", "105033.642500", "105035.650000", "105037.657500", "105039.667500", "105041.675000", "105043.682500", "105045.690000", "105047.697500", "105049.707500", "105051.715000", "105053.722500", "105055.730000", "105057.740000", "105059.747500"],
      "ContentTime": ["103652.546000", "103652.546000", "103652.546000", "103652.546000", "103652.546000", "103652.562000", "103652.562000", "103652.562000", "103652.562000", "103652.562000", "103652.562000", "103652.578000", "103652.578000", "103652.578000", "103652.578000", "103652.593000", "103652.593000", "103652.593000", "103652.593000", "103652.593000", "103652.593000", "103652.593000", "103652.609000", "103652.609000", "103652.609000", "103652.609000", "103652.625000", "103732.515000", "103732.531000", "103732.531000", "103732.531000", "103732.531000", "103732.531000", "103732.531000", "103732.531000", "103732.546000", "103732.546000", "103732.546000", "103732.546000", "103732.546000", "103732.546000", "103732.562000", "103732.562000", "103732.562000", "103732.562000", "103732.562000", "103732.562000", "103812.515000", "103812.531000", "103812.531000", "103812.531000", "103812.531000", "103812.531000", "103812.531000", "103812.531000", "103812.546000", "103812.546000", "103812.546000", "103812.546000", "103812.546000", "103812.546000", "103812.562000", "103812.562000", "103812.562000", "103812.562000", "103812.578000", "103812.578000", "103852.515000", "103852.531000", "103852.531000", "103852.531000", "103852.531000", "103852.531000", "103852.546000", "103852.546000", "103852.546000", "103852.546000", "103852.546000", "103852.546000", "103852.546000", "103852.562000", "103852.562000", "103852.562000", "103852.562000", "103852.562000", "103852.562000", "103852.562000", "103932.515000", "103932.531000", "103932.531000", "103932.546000", "103932.546000", "103932.546000", "103932.546000", "103932.546000", "103932.546000", "103932.546000", "103932.546000", "103932.562000", "103932.562000", "103932.562000", "103932.562000", "103932.578000", "103932.578000", "103932.578000", "103932.578000", "103932.578000", "104012.515000", "104012.531000", "104012.531000", "104012.531000", "104012.531000", "104012.531000", "104012.546000", "104012.546000", "104012.546000", "104012.546000", "104012.546000", "104012.562000", "104012.562000", "104012.562000", "104012.562000", "104012.562000", "104012.562000", "104012.562000", "104012.578000", "104012.578000", "104052.515000", "104052.531000", "104052.531000", "104052.531000", "104052.531000", "104052.531000", "104052.531000", "104052.531000", "104052.546000", "104052.546000", "104052.546000", "104052.546000", "104052.546000", "104052.546000", "104052.546000", "104052.546000", "104052.562000", "104052.562000", "104052.562000", "104052.562000", "104132.515000", "104132.531000", "104132.531000", "104132.531000", "104132.531000", "104132.531000", "104132.546000", "104132.546000", "104132.546000", "104132.546000", "104132.546000", "104132.546000", "104132.546000", "104132.562000", "104132.562000", "104132.562000", "104132.562000", "104132.562000", "104132.562000", "104132.562000", "104212.515000", "104212.531000", "104212.531000", "104212.531000", "104212.531000", "104212.531000", "104212.531000", "104212.531000", "104212.546000", "104212.546000", "104212.546000", "104212.546000", "104212.546000", "104212.546000", "104212.546000", "104212.562000", "104212.562000", "104212.562000", "104212.562000", "104212.562000", "104252.515000", "104252.531000", "104252.531000", "104252.531000", "104252.531000", "104252.531000", "104252.531000", "104252.531000", "104252.546000", "104252.546000", "104252.546000", "104252.546000", "104252.546000", "104252.546000", "104252.562000", "104252.562000", "104252.562000", "104252.562000", "104252.578000", "104252.578000", "104332.515000", "104332.531000", "104332.531000", "104332.531000", "104332.531000", "104332.531000", "104332.531000", "104332.531000", "104332.546000", "104332.546000", "104332.546000", "104332.546000", "104332.546000", "104332.546000", "104332.546000", "104332.562000", "104332.562000", "104332.562000", "104332.562000", "104332.562000", "104412.515000", "104412.531000", "104412.531000", "104412.531000", "104412.531000", "104412.531000", "104412.546000", "104412.546000", "104412.546000", "104412.546000", "104412.546000", "104412.562000", "104412.562000", "104412.562000", "104412.562000", "104412.562000", "104412.562000", "104412.562000", "104412.562000", "104412.578000", "104452.515000", "104452.531000", "104452.531000", "104452.531000", "104452.531000", "104452.531000", "104452.531000", "104452.531000", "104452.546000", "104452.546000", "104452.546000", "104452.562000", "104452.562000", "104452.562000", "104452.562000", "104452.562000", "104452.562000", "104452.562000", "104452.578000", "104452.578000", "104532.531000", "104532.546000", "104532.546000", "104532.546000", "104532.546000", "104532.546000", "104532.546000", "104532.562000", "104532.562000", "104532.562000", "104532.578000", "104532.578000", "104532.578000", "104532.578000", "104532.578000", "104532.578000", "104532.593000", "104532.593000", "104532.593000", "104532.593000", "104612.515000", "104612.531000", "104612.531000", "104612.531000", "104612.531000", "104612.531000", "104612.546000", "104612.546000", "104612.546000", "104612.546000", "104612.546000", "104612.546000", "104612.562000", "104612.562000", "104612.562000", "104612.562000", "104612.562000", "104612.562000", "104612.562000", "104612.578000", "104652.515000", "104652.531000", "104652.531000", "104652.531000", "104652.546000", "104652.546000", "104652.546000", "104652.546000", "104652.546000", "104652.546000", "104652.562000", "104652.562000", "104652.562000", "104652.562000", "104652.562000", "104652.562000", "104652.562000", "104652.578000", "104652.578000", "104652.578000", "104732.515000", "104732.531000", "104732.531000", "104732.531000", "104732.531000", "104732.531000", "104732.531000", "104732.531000", "104732.546000", "104732.546000", "104732.546000", "104732.546000", "104732.546000", "104732.546000", "104732.562000", "104732.562000", "104732.562000", "104732.562000", "104732.562000", "104732.562000", "104812.515000", "104812.531000", "104812.531000", "104812.531000", "104812.531000", "104812.531000", "104812.531000", "104812.546000", "104812.546000", "104812.546000", "104812.546000", "104812.546000", "104812.546000", "104812.562000", "104812.562000", "104812.562000", "104812.562000", "104812.562000", "104812.562000", "104812.562000", "104852.515000", "104852.531000", "104852.531000", "104852.531000", "104852.546000", "104852.546000", "104852.546000", "104852.546000", "104852.546000", "104852.562000", "104852.562000", "104852.562000", "104852.562000", "104852.562000", "104852.562000", "104852.562000", "104852.578000", "104852.578000", "104852.578000", "104852.578000", "104932.515000", "104932.531000", "104932.531000", "104932.531000", "104932.531000", "104932.531000", "104932.531000", "104932.531000", "104932.546000", "104932.546000", "104932.546000", "104932.546000", "104932.546000", "104932.546000", "104932.546000", "104932.562000", "104932.562000", "104932.562000", "104932.562000", "104932.562000", "105012.515000", "105012.531000", "105012.531000", "105012.531000", "105012.531000", "105012.531000", "105012.531000", "105012.531000", "105012.546000", "105012.546000", "105012.546000", "105012.546000", "105012.546000", "105012.546000", "105012.546000", "105012.562000", "105012.562000", "105012.562000", "105012.562000", "105012.562000", "105052.515000", "105052.531000", "105052.531000", "105052.531000", "105052.531000", "105052.531000", "105052.531000", "105052.531000", "105052.546000", "105052.546000", "105052.546000", "105052.546000", "105052.546000", "105052.546000", "105052.546000", "105052.562000", "105052.562000", "105052.562000", "105052.562000", "105052.578000", "105058.265000", "105058.265000", "105058.265000"],
