{
  "AcquisitionMatrixPE": 72,
  "AcquisitionNumber": 1,
  "AcquisitionTime": "15:40:59.775000",
  "BandwidthPerPixelPhaseEncode": 28.935,
  "BaseResolution": 72,
  "CoilString": "C:HEA;HEP",
  "ConversionSoftware": "dcm2niix",
  "ConversionSoftwareVersion": "v1.0.20190410  GCC6.3.0",
  "DerivedVendorReportedEchoSpacing": 0.000480003,
  "DeviceSerialNumber": "35149",
  "DwellTime": 2.9e-06,
  "EchoTime": 0.025,
  "EffectiveEchoSpacing": 0.000480003,
  "FlipAngle": 75,
  "ImageOrientationPatientDICOM": [0.996024, 0.0140227, 0.0879766, 0.0398772, 0.812899, -0.581038],
  "ImageType": [
    "ORIGINAL",
    "PRIMARY",
    "M",
    "ND",
    "MOSAIC"
],
  "ImagingFrequency": 123.255,
  "InPlanePhaseEncodingDirectionDICOM": "COL",
  "InstitutionAddress": "Street_StreetNo_Rehovot_91E162_District_IL_ZIP",
  "InstitutionName": "Weizmann",
  "InstitutionalDepartmentName": "Department",
  "MRAcquisitionType": "2D",
  "MagneticFieldStrength": 3,
  "Manufacturer": "Siemens",
  "ManufacturersModelName": "TrioTim",
  "Modality": "MR",
  "PartialFourier": 1,
  "PatientPosition": "HFS",
  "PercentPhaseFOV": 100,
  "PhaseEncodingDirection": "j-",
  "PhaseEncodingSteps": 72,
  "PhaseResolution": 1,
  "PixelBandwidth": 2395,
  "ProcedureStepDescription": "Weizmann_Sobel",
  "ProtocolName": "exp1_30_to_AC-PC",
  "PulseSequenceDetails": "%SiemensSeq%_ep2d_pace",
  "ReceiveCoilName": "HeadMatrix",
  "ReconMatrixPE": 72,
  "RepetitionTime": 2,
  "SAR": 0.18245,
  "ScanOptions": "FS",
  "ScanningSequence": "EP",
  "SequenceName": "_epfid2d1_72",
  "SequenceVariant": "SK",
  "SeriesDescription": "exp1_30_to_AC-PC",
  "SeriesNumber": 3,
  "ShimSetting": [2391, 9158, -5820, -412, 31, -1404, -5, 22],
  "SliceThickness": 3.7,
  "SliceTiming": [0.9925, 0, 1.0525, 0.0575, 1.11, 0.1175, 1.1675, 0.175, 1.2275, 0.2325, 1.285, 0.2925, 1.345, 0.35, 1.4025, 0.4075, 1.46, 0.4675, 1.52, 0.525, 1.5775, 0.585, 1.635, 0.6425, 1.695, 0.7, 1.7525, 0.76, 1.8125, 0.8175, 1.87, 0.875, 1.9275, 0.935],
  "SoftwareVersions": "syngo_MR_B17",
  "SpacingBetweenSlices": 3.7,
  "StationName": "MRC35149",
  "TaskName": "bodyodor",
  "TotalReadoutTime": 0.0340802,
  "TxRefAmp": 384.209,
  "VendorReportedEchoSpacing": 0.00048,
  "dcmmeta_affine": [
    [-2.9880714416503906, 0.11963168531656265, 0.29475632309913635, 102.68567657470703],
    [-0.04206814989447594, 2.4386978149414062, -2.154271364212036, -34.3915901184082],
    [0.26392990350723267, 1.743112564086914, 2.993699073791504, -93.9718017578125],
    [0.0, 0.0, 0.0, 1.0]
],
  "dcmmeta_reorient_transform": [
    [0.0, -1.0, 0.0, 71.0],
    [1.0, 0.0, 0.0, 0.0],
    [0.0, 0.0, 1.0, 0.0],
    [0.0, 0.0, 0.0, 1.0]
],
  "dcmmeta_shape": [72, 72, 34, 450],
  "dcmmeta_slice_dim": 2,
  "dcmmeta_version": 0.6,
  "global": {
    "const": {
      "AcquisitionMatrix": [72, 0, 0, 72],
      "AngioFlag": "N",
      "BitsAllocated": 16,
      "BitsStored": 12,
      "Columns": 432,
      "EchoNumbers": 1,
      "EchoTime": 25.0,
      "EchoTrainLength": 1,
      "FlipAngle": 75.0,
      "HighBit": 11,
      "ImageOrientationPatient": [0.99602383249212, 0.01402271664741, 0.08797663624809, 0.03987722906005, 0.81289926031804, -0.5810375195948],
      "ImagePositionPatient": [-670.56610060095, -585.29382059021, 296.04206477439],
      "ImageType": [
        "ORIGINAL",
        "PRIMARY",
        "M",
        "ND",
        "MOSAIC"
],
      "ImagedNucleus": "1H",
      "ImagingFrequency": 123.254798,
      "InPlanePhaseEncodingDirection": "COL",
      "MRAcquisitionType": "2D",
      "MagneticFieldStrength": 3.0,
      "Manufacturer": "SIEMENS",
      "ManufacturerModelName": "TrioTim",
      "Modality": "MR",
      "NumberOfAverages": 1.0,
      "NumberOfPhaseEncodingSteps": 72,
      "PercentPhaseFieldOfView": 100.0,
      "PercentSampling": 100.0,
      "PerformedProcedureStepStartTime": "152751.765000",
      "PhotometricInterpretation": "MONOCHROME2",
      "PixelBandwidth": 2395.0,
      "PixelRepresentation": 0,
      "PixelSpacing": [3.0, 3.0],
      "ProtocolName": "exp1_30_to_AC-PC",
      "RepetitionTime": 2000.0,
      "Rows": 432,
      "SAR": 0.1824501159078,
      "SamplesPerPixel": 1,
      "ScanOptions": "FS",
      "ScanningSequence": "EP",
      "SequenceName": "*epfid2d1_72",
      "SequenceVariant": "SK",
      "SeriesDescription": "exp1_30_to_AC-PC",
      "SeriesNumber": 3,
      "SeriesTime": "154156.640000",
      "SliceLocation": -47.828982391484,
      "SliceThickness": 3.7000000476837,
      "SmallestImagePixelValue": 0,
      "SoftwareVersions": "syngo MR B17",
      "SpacingBetweenSlices": 3.7000000329148,
      "SpecificCharacterSet": "ISO_IR 100",
      "StudyID": "1",
      "StudyTime": "152751.718000",
      "TransmitCoilName": "Body",
      "VariableFlipAngleFlag": "N",
      "WindowCenterWidthExplanation": "Algo1",
      "dBdt": 0.0},
    "slices": {}
  },
  "time": {
    "samples": {
      "AcquisitionNumber": [1, 2, 3, 4, 5, 6, 7, 8, 9, 10, 11, 12, 13, 14, 15, 16, 17, 18, 19, 20, 21, 22, 23, 24, 25, 26, 27, 28, 29, 30, 31, 32, 33, 34, 35, 36, 37, 38, 39, 40, 41, 42, 43, 44, 45, 46, 47, 48, 49, 50, 51, 52, 53, 54, 55, 56, 57, 58, 59, 60, 61, 62, 63, 64, 65, 66, 67, 68, 69, 70, 71, 72, 73, 74, 75, 76, 77, 78, 79, 80, 81, 82, 83, 84, 85, 86, 87, 88, 89, 90, 91, 92, 93, 94, 95, 96, 97, 98, 99, 100, 101, 102, 103, 104, 105, 106, 107, 108, 109, 110, 111, 112, 113, 114, 115, 116, 117, 118, 119, 120, 121, 122, 123, 124, 125, 126, 127, 128, 129, 130, 131, 132, 133, 134, 135, 136, 137, 138, 139, 140, 141, 142, 143, 144, 145, 146, 147, 148, 149, 150, 151, 152, 153, 154, 155, 156, 157, 158, 159, 160, 161, 162, 163, 164, 165, 166, 167, 168, 169, 170, 171, 172, 173, 174, 175, 176, 177, 178, 179, 180, 181, 182, 183, 184, 185, 186, 187, 188, 189, 190, 191, 192, 193, 194, 195, 196, 197, 198, 199, 200, 201, 202, 203, 204, 205, 206, 207, 208, 209, 210, 211, 212, 213, 214, 215, 216, 217, 218, 219, 220, 221, 222, 223, 224, 225, 226, 227, 228, 229, 230, 231, 232, 233, 234, 235, 236, 237, 238, 239, 240, 241, 242, 243, 244, 245, 246, 247, 248, 249, 250, 251, 252, 253, 254, 255, 256, 257, 258, 259, 260, 261, 262, 263, 264, 265, 266, 267, 268, 269, 270, 271, 272, 273, 274, 275, 276, 277, 278, 279, 280, 281, 282, 283, 284, 285, 286, 287, 288, 289, 290, 291, 292, 293, 294, 295, 296, 297, 298, 299, 300, 301, 302, 303, 304, 305, 306, 307, 308, 309, 310, 311, 312, 313, 314, 315, 316, 317, 318, 319, 320, 321, 322, 323, 324, 325, 326, 327, 328, 329, 330, 331, 332, 333, 334, 335, 336, 337, 338, 339, 340, 341, 342, 343, 344, 345, 346, 347, 348, 349, 350, 351, 352, 353, 354, 355, 356, 357, 358, 359, 360, 361, 362, 363, 364, 365, 366, 367, 368, 369, 370, 371, 372, 373, 374, 375, 376, 377, 378, 379, 380, 381, 382, 383, 384, 385, 386, 387, 388, 389, 390, 391, 392, 393, 394, 395, 396, 397, 398, 399, 400, 401, 402, 403, 404, 405, 406, 407, 408, 409, 410, 411, 412, 413, 414, 415, 416, 417, 418, 419, 420, 421, 422, 423, 424, 425, 426, 427, 428, 429, 430, 431, 432, 433, 434, 435, 436, 437, 438, 439, 440, 441, 442, 443, 444, 445, 446, 447, 448, 449, 450],
      "AcquisitionTime": ["154059.775000", "154101.782500", "154103.792500", "154105.800000", "154107.807500", "154109.815000", "154111.825000", "154113.832500", "154115.840000", "154117.847500", "154119.855000", "154121.865000", "154123.872500", "154125.880000", "154127.887500", "154129.895000", "154131.905000", "154133.912500", "154135.920000", "154137.927500", "154139.935000", "154141.945000", "154143.952500", "154145.960000", "154147.967500", "154149.977500", "154151.985000", "154153.992500", "154156.000000", "154158.007500", "154200.017500", "154202.025000", "154204.032500", "154206.040000", "154208.047500", "154210.057500", "154212.065000", "154214.072500", "154216.080000", "154218.090000", "154220.097500", "154222.105000", "154224.112500", "154226.120000", "154228.130000", "154230.137500", "154232.145000", "154234.152500", "154236.160000", "154238.170000", "154240.177500", "154242.185000", "154244.192500", "154246.202500", "154248.210000", "154250.217500", "154252.225000", "154254.232500", "154256.242500", "154258.250000", "154300.257500", "154302.265000", "154304.272500", "154306.282500", "154308.290000", "154310.297500", "154312.305000", "154314.312500", "154316.322500", "154318.330000", "154320.337500", "154322.345000", "154324.355000", "154326.362500", "154328.370000", "154330.377500", "154332.385000", "154334.395000", "154336.402500", "154338.410000", "154340.417500", "154342.425000", "154344.435000", "154346.442500", "154348.450000", "154350.457500", "154352.467500", "154354.475000", "154356.482500", "154358.490000", "154400.497500", "154402.507500", "154404.515000", "154406.522500", "154408.530000", "154410.537500", "154412.547500", "154414.555000", "154416.562500", "154418.570000", "154420.580000", "154422.587500", "154424.595000", "154426.602500", "154428.610000", "154430.620000", "154432.627500", "154434.635000", "154436.642500", "154438.650000", "154440.660000", "154442.667500", "154444.675000", "154446.682500", "154448.690000", "154450.700000", "154452.707500", "154454.715000", "154456.722500", "154458.732500", "154500.740000", "154502.747500", "154504.755000", "154506.762500", "154508.772500", "154510.780000", "154512.787500", "154514.795000", "154516.802500", "154518.812500", "154520.820000", "154522.827500", "154524.835000", "154526.845000", "154528.852500", "154530.860000", "154532.867500", "154534.875000", "154536.885000", "154538.892500", "154540.900000", "154542.907500", "154544.915000", "154546.925000", "154548.932500", "154550.940000", "154552.947500", "154554.957500", "154556.965000", "154558.972500", "154600.980000", "154602.987500", "154604.997500", "154607.005000", "154609.012500", "154611.020000", "154613.027500", "154615.037500", "154617.045000", "154619.052500", "154621.060000", "154623.067500", "154625.077500", "154627.085000", "154629.092500", "154631.100000", "154633.110000", "154635.117500", "154637.125000", "154639.132500", "154641.140000", "154643.150000", "154645.157500", "154647.165000", "154649.172500", "154651.180000", "154653.190000", "154655.197500", "154657.205000", "154659.212500", "154701.222500", "154703.230000", "154705.237500", "154707.245000", "154709.252500", "154711.262500", "154713.270000", "154715.277500", "154717.285000", "154719.292500", "154721.302500", "154723.310000", "154725.317500", "154727.325000", "154729.335000", "154731.342500", "154733.350000", "154735.357500", "154737.365000", "154739.375000", "154741.382500", "154743.390000", "154745.397500", "154747.405000", "154749.415000", "154751.422500", "154753.430000", "154755.437500", "154757.447500", "154759.455000", "154801.462500", "154803.470000", "154805.477500", "154807.487500", "154809.495000", "154811.502500", "154813.510000", "154815.517500", "154817.527500", "154819.535000", "154821.542500", "154823.550000", "154825.557500", "154827.567500", "154829.575000", "154831.582500", "154833.590000", "154835.600000", "154837.607500", "154839.615000", "154841.622500", "154843.630000", "154845.640000", "154847.647500", "154849.655000", "154851.662500", "154853.670000", "154855.680000", "154857.687500", "154859.695000", "154901.702500", "154903.712500", "154905.720000", "154907.727500", "154909.735000", "154911.742500", "154913.752500", "154915.760000", "154917.767500", "154919.775000", "154921.782500", "154923.792500", "154925.800000", "154927.807500", "154929.815000", "154931.825000", "154933.832500", "154935.840000", "154937.847500", "154939.855000", "154941.865000", "154943.872500", "154945.880000", "154947.887500", "154949.895000", "154951.905000", "154953.912500", "154955.920000", "154957.927500", "154959.935000", "155001.945000", "155003.952500", "155005.960000", "155007.967500", "155009.977500", "155011.985000", "155013.992500", "155016.000000", "155018.007500", "155020.017500", "155022.025000", "155024.032500", "155026.040000", "155028.047500", "155030.057500", "155032.065000", "155034.072500", "155036.080000", "155038.090000", "155040.097500", "155042.105000", "155044.112500", "155046.120000", "155048.130000", "155050.137500", "155052.145000", "155054.152500", "155056.160000", "155058.170000", "155100.177500", "155102.185000", "155104.192500", "155106.202500", "155108.210000", "155110.217500", "155112.225000", "155114.232500", "155116.242500", "155118.250000", "155120.257500", "155122.265000", "155124.272500", "155126.282500", "155128.290000", "155130.297500", "155132.305000", "155134.312500", "155136.322500", "155138.330000", "155140.337500", "155142.345000", "155144.355000", "155146.362500", "155148.370000", "155150.377500", "155152.385000", "155154.395000", "155156.402500", "155158.410000", "155200.417500", "155202.425000", "155204.435000", "155206.442500", "155208.450000", "155210.457500", "155212.467500", "155214.475000", "155216.482500", "155218.490000", "155220.497500", "155222.507500", "155224.515000", "155226.522500", "155228.530000", "155230.537500", "155232.547500", "155234.555000", "155236.562500", "155238.570000", "155240.580000", "155242.587500", "155244.595000", "155246.602500", "155248.610000", "155250.620000", "155252.627500", "155254.635000", "155256.642500", "155258.650000", "155300.660000", "155302.667500", "155304.675000", "155306.682500", "155308.690000", "155310.700000", "155312.707500", "155314.715000", "155316.722500", "155318.732500", "155320.740000", "155322.747500", "155324.755000", "155326.762500", "155328.772500", "155330.780000", "155332.787500", "155334.795000", "155336.802500", "155338.812500", "155340.820000", "155342.827500", "155344.835000", "155346.845000", "155348.852500", "155350.860000", "155352.867500", "155354.875000", "155356.885000", "155358.892500", "155400.900000", "155402.907500", "155404.915000", "155406.925000", "155408.932500", "155410.940000", "155412.947500", "155414.957500", "155416.965000", "155418.972500", "155420.980000", "155422.987500", "155424.997500", "155427.005000", "155429.012500", "155431.020000", "155433.027500", "155435.037500", "155437.045000", "155439.052500", "155441.060000", "155443.067500", "155445.077500", "155447.085000", "155449.092500", "155451.100000", "155453.110000", "155455.117500", "155457.125000", "155459.132500", "155501.140000", "155503.150000", "155505.157500", "155507.165000", "155509.172500", "155511.180000", "155513.190000", "155515.197500", "155517.205000", "155519.212500", "155521.222500", "155523.230000", "155525.237500", "155527.245000", "155529.252500", "155531.262500", "155533.270000", "155535.277500", "155537.285000", "155539.292500", "155541.302500", "155543.310000", "155545.317500", "155547.325000", "155549.335000", "155551.342500", "155553.350000", "155555.357500", "155557.365000", "155559.375000", "155601.382500"],
      "ContentTime": ["154156.656000", "154156.656000", "154156.656000", "154156.656000", "154156.656000", "154156.656000", "154156.671000", "154156.671000", "154156.671000", "154156.671000", "154156.687000", "154156.687000", "154156.687000", "154156.687000", "154156.687000", "154156.687000", "154156.703000", "154156.703000", "154156.703000", "154156.703000", "154156.703000", "154156.703000", "154156.718000", "154156.718000", "154156.718000", "154156.718000", "154156.718000", "154156.718000", "154236.640000", "154236.640000", "154236.640000", "154236.640000", "154236.656000", "154236.656000", "154236.656000", "154236.656000", "154236.656000", "154236.656000", "154236.656000", "154236.671000", "154236.671000", "154236.671000", "154236.671000", "154236.671000", "154236.671000", "154236.671000", "154236.671000", "154236.687000", "154316.640000", "154316.640000", "154316.640000", "154316.640000", "154316.656000", "154316.656000", "154316.656000", "154316.656000", "154316.656000", "154316.656000", "154316.656000", "154316.671000", "154316.671000", "154316.671000", "154316.687000", "154316.687000", "154316.687000", "154316.687000", "154316.687000", "154316.687000", "154356.640000", "154356.640000", "154356.640000", "154356.640000", "154356.656000", "154356.656000", "154356.656000", "154356.656000", "154356.656000", "154356.656000", "154356.656000", "154356.671000", "154356.671000", "154356.671000", "154356.671000", "154356.671000", "154356.671000", "154356.671000", "154356.687000", "154356.687000", "154436.640000", "154436.640000", "154436.640000", "154436.640000", "154436.656000", "154436.656000", "154436.656000", "154436.656000", "154436.656000", "154436.656000", "154436.656000", "154436.671000", "154436.671000", "154436.671000", "154436.687000", "154436.687000", "154436.687000", "154436.687000", "154436.687000", "154436.687000", "154516.640000", "154516.640000", "154516.656000", "154516.656000", "154516.656000", "154516.656000", "154516.656000", "154516.671000", "154516.671000", "154516.671000", "154516.671000", "154516.671000", "154516.687000", "154516.687000", "154516.687000", "154516.687000", "154516.687000", "154516.687000", "154516.687000", "154516.703000", "154556.640000", "154556.640000", "154556.640000", "154556.640000", "154556.656000", "154556.656000", "154556.656000", "154556.656000", "154556.656000", "154556.656000", "154556.656000", "154556.671000", "154556.671000", "154556.671000", "154556.671000", "154556.671000", "154556.671000", "154556.671000", "154556.687000", "154556.687000", "154636.640000", "154636.640000", "154636.640000", "154636.640000", "154636.656000", "154636.656000", "154636.656000", "154636.656000", "154636.671000", "154636.671000", "154636.671000", "154636.671000", "154636.671000", "154636.671000", "154636.671000", "154636.687000", "154636.718000", "154636.718000", "154636.718000", "154636.718000", "154716.640000", "154716.640000", "154716.640000", "154716.640000", "154716.656000", "154716.656000", "154716.656000", "154716.656000", "154716.656000", "154716.656000", "154716.656000", "154716.671000", "154716.671000", "154716.671000", "154716.671000", "154716.671000", "154716.671000", "154716.687000", "154716.687000", "154716.687000", "154756.640000", "154756.640000", "154756.640000", "154756.640000", "154756.656000", "154756.656000", "154756.656000", "154756.656000", "154756.656000", "154756.671000", "154756.671000", "154756.671000", "154756.671000", "154756.671000", "154756.687000", "154756.687000", "154756.687000", "154756.687000", "154756.687000", "154756.687000", "154836.640000", "154836.640000", "154836.640000", "154836.656000", "154836.656000", "154836.656000", "154836.656000", "154836.656000", "154836.671000", "154836.671000", "154836.671000", "154836.671000", "154836.671000", "154836.671000", "154836.687000", "154836.687000", "154836.687000", "154836.687000", "154836.687000", "154836.687000", "154916.640000", "154916.656000", "154916.656000", "154916.656000", "154916.656000", "154916.656000", "154916.671000", "154916.671000", "154916.671000", "154916.671000", "154916.687000", "154916.687000", "154916.687000", "154916.687000", "154916.687000", "154916.687000", "154916.703000", "154916.703000", "154916.703000", "154916.703000", "154956.640000", "154956.640000", "154956.640000", "154956.640000", "154956.656000", "154956.656000", "154956.656000", "154956.656000", "154956.656000", "154956.656000", "154956.656000", "154956.671000", "154956.671000", "154956.671000", "154956.671000", "154956.671000", "154956.671000", "154956.687000", "154956.687000", "154956.687000", "155036.640000", "155036.640000", "155036.640000", "155036.640000", "155036.656000", "155036.656000", "155036.656000", "155036.656000", "155036.656000", "155036.656000", "155036.671000", "155036.671000", "155036.671000", "155036.671000", "155036.671000", "155036.671000", "155036.671000", "155036.687000", "155036.687000", "155036.687000", "155116.640000", "155116.640000", "155116.640000", "155116.640000", "155116.656000", "155116.656000", "155116.656000", "155116.656000", "155116.656000", "155116.656000", "155116.671000", "155116.671000", "155116.671000", "155116.671000", "155116.671000", "155116.671000", "155116.671000", "155116.671000", "155116.687000", "155116.687000", "155156.640000", "155156.640000", "155156.640000", "155156.640000", "155156.656000", "155156.656000", "155156.656000", "155156.656000", "155156.656000", "155156.656000", "155156.671000", "155156.671000", "155156.671000", "155156.671000", "155156.671000", "155156.671000", "155156.671000", "155156.671000", "155156.687000", "155156.687000", "155236.640000", "155236.640000", "155236.640000", "155236.640000", "155236.656000", "155236.656000", "155236.656000", "155236.656000", "155236.656000", "155236.656000", "155236.671000", "155236.671000", "155236.671000", "155236.671000", "155236.671000", "155236.671000", "155236.671000", "155236.687000", "155236.687000", "155236.687000", "155316.640000", "155316.640000", "155316.640000", "155316.640000", "155316.656000", "155316.656000", "155316.656000", "155316.656000", "155316.656000", "155316.656000", "155316.671000", "155316.671000", "155316.671000", "155316.671000", "155316.671000", "155316.671000", "155316.671000", "155316.671000", "155316.687000", "155316.687000", "155356.640000", "155356.640000", "155356.640000", "155356.640000", "155356.656000", "155356.656000", "155356.656000", "155356.656000", "155356.656000", "155356.656000", "155356.671000", "155356.671000", "155356.671000", "155356.671000", "155356.671000", "155356.671000", "155356.671000", "155356.687000", "155356.687000", "155356.687000", "155436.640000", "155436.640000", "155436.640000", "155436.640000", "155436.656000", "155436.656000", "155436.656000", "155436.656000", "155436.656000", "155436.656000", "155436.671000", "155436.671000", "155436.671000", "155436.671000", "155436.671000", "155436.671000", "155436.671000", "155436.687000", "155436.687000", "155436.687000", "155516.640000", "155516.640000", "155516.640000", "155516.656000", "155516.656000", "155516.656000", "155516.656000", "155516.656000", "155516.656000", "155516.656000", "155516.671000", "155516.671000", "155516.671000", "155516.671000", "155516.687000", "155516.687000", "155516.687000", "155516.687000", "155516.687000", "155516.687000", "155556.640000", "155556.640000", "155556.640000", "155556.640000", "155556.656000", "155556.656000", "155556.656000", "155556.671000", "155556.671000", "155556.671000", "155556.671000", "155556.671000", "155556.671000", "155556.687000", "155556.687000", "155556.687000", "155556.687000", "155556.687000", "155556.687000", "155556.687000", "155559.734000", "155559.734000"],
