{
  "AcquisitionMatrixPE": 72,
  "AcquisitionNumber": 1,
  "AcquisitionTime": "15:07:26.412500",
  "BandwidthPerPixelPhaseEncode": 28.935,
  "BaseResolution": 72,
  "CoilString": "C:HEA;HEP",
  "ConversionSoftware": "dcm2niix",
  "ConversionSoftwareVersion": "v1.0.20190410  GCC6.3.0",
  "DerivedVendorReportedEchoSpacing": 0.000480003,
  "DeviceSerialNumber": "35149",
  "DwellTime": 2.9e-06,
  "EchoTime": 0.025,
  "EffectiveEchoSpacing": 0.000480003,
  "FlipAngle": 75,
  "ImageOrientationPatientDICOM": [0.997916, -0.0517914, -0.0384756, 0.0307641, 0.906147, -0.421843],
  "ImageType": [
    "ORIGINAL",
    "PRIMARY",
    "M",
    "ND",
    "MOSAIC"
],
  "ImagingFrequency": 123.255,
  "InPlanePhaseEncodingDirectionDICOM": "COL",
  "InstitutionAddress": "Street_StreetNo_Rehovot_91E162_District_IL_ZIP",
  "InstitutionName": "Weizmann",
  "InstitutionalDepartmentName": "Department",
  "MRAcquisitionType": "2D",
  "MagneticFieldStrength": 3,
  "Manufacturer": "Siemens",
  "ManufacturersModelName": "TrioTim",
  "Modality": "MR",
  "PartialFourier": 1,
  "PatientPosition": "HFS",
  "PercentPhaseFOV": 100,
  "PhaseEncodingDirection": "j-",
  "PhaseEncodingSteps": 72,
  "PhaseResolution": 1,
  "PixelBandwidth": 2395,
  "ProcedureStepDescription": "Weizmann_Sobel",
  "ProtocolName": "exp1_30_to_AC-PC",
  "PulseSequenceDetails": "%SiemensSeq%_ep2d_pace",
  "ReceiveCoilName": "HeadMatrix",
  "ReconMatrixPE": 72,
  "RepetitionTime": 2,
  "SAR": 0.173014,
  "ScanOptions": "FS",
  "ScanningSequence": "EP",
  "SequenceName": "_epfid2d1_72",
  "SequenceVariant": "SK",
  "SeriesDescription": "exp1_30_to_AC-PC",
  "SeriesNumber": 5,
  "ShimSetting": [2356, 9320, -5602, 844, 175, -692, 144, 58],
  "SliceThickness": 3.7,
  "SliceTiming": [0.995, 0, 1.0525, 0.06, 1.11, 0.1175, 1.17, 0.175, 1.2275, 0.235, 1.2875, 0.2925, 1.345, 0.35, 1.4025, 0.41, 1.4625, 0.4675, 1.52, 0.5275, 1.58, 0.585, 1.6375, 0.6425, 1.695, 0.7025, 1.755, 0.76, 1.8125, 0.82, 1.87, 0.8775, 1.93, 0.935],
  "SoftwareVersions": "syngo_MR_B17",
  "SpacingBetweenSlices": 3.7,
  "StationName": "MRC35149",
  "TaskName": "bodyodor",
  "TotalReadoutTime": 0.0340802,
  "TxRefAmp": 305.013,
  "VendorReportedEchoSpacing": 0.00048,
  "dcmmeta_affine": [
    [-2.9937493801116943, 0.09229228645563126, -0.2098359614610672, 106.15274810791016],
    [0.15537433326244354, 2.7184407711029053, -1.5531864166259766, -58.415184020996094],
    [-0.11542689055204391, 1.2655280828475952, 3.351653575897217, -71.17973327636719],
    [0.0, 0.0, 0.0, 1.0]
],
  "dcmmeta_reorient_transform": [
    [0.0, -1.0, 0.0, 71.0],
    [1.0, 0.0, 0.0, 0.0],
    [0.0, 0.0, 1.0, 0.0],
    [0.0, 0.0, 0.0, 1.0]
],
  "dcmmeta_shape": [72, 72, 34, 450],
  "dcmmeta_slice_dim": 2,
  "dcmmeta_version": 0.6,
  "global": {
    "const": {
      "AcquisitionMatrix": [72, 0, 0, 72],
      "AngioFlag": "N",
      "BitsAllocated": 16,
      "BitsStored": 12,
      "Columns": 432,
      "EchoNumbers": 1,
      "EchoTime": 25.0,
      "EchoTrainLength": 1,
      "FlipAngle": 75.0,
      "HighBit": 11,
      "ImageOrientationPatient": [0.99791646548932, -0.0517914449963, -0.0384756303456, 0.03076409532982, 0.90614696255521, -0.4218426871365],
      "ImagePositionPatient": [-668.19300047062, -595.94609821751, 267.24465138122],
      "ImageType": [
        "ORIGINAL",
        "PRIMARY",
        "M",
        "ND",
        "MOSAIC"
],
      "ImagedNucleus": "1H",
      "ImagingFrequency": 123.254828,
      "InPlanePhaseEncodingDirection": "COL",
      "MRAcquisitionType": "2D",
      "MagneticFieldStrength": 3.0,
      "Manufacturer": "SIEMENS",
      "ManufacturerModelName": "TrioTim",
      "Modality": "MR",
      "NumberOfAverages": 1.0,
      "NumberOfPhaseEncodingSteps": 72,
      "PercentPhaseFieldOfView": 100.0,
      "PercentSampling": 100.0,
      "PerformedProcedureStepStartTime": "144157.593000",
      "PhotometricInterpretation": "MONOCHROME2",
      "PixelBandwidth": 2395.0,
      "PixelRepresentation": 0,
      "PixelSpacing": [3.0, 3.0],
      "ProtocolName": "exp1_30_to_AC-PC",
      "RepetitionTime": 2000.0,
      "Rows": 432,
      "SAR": 0.17301379527041,
      "SamplesPerPixel": 1,
      "ScanOptions": "FS",
      "ScanningSequence": "EP",
      "SequenceName": "*epfid2d1_72",
      "SequenceVariant": "SK",
      "SeriesDescription": "exp1_30_to_AC-PC",
      "SeriesNumber": 5,
      "SeriesTime": "150743.406000",
      "SliceLocation": -45.976970908885,
      "SliceThickness": 3.7000000476837,
      "SmallestImagePixelValue": 0,
      "SoftwareVersions": "syngo MR B17",
      "SpacingBetweenSlices": 3.7000001420258,
      "SpecificCharacterSet": "ISO_IR 100",
      "StudyID": "1",
      "StudyTime": "144157.546000",
      "TransmitCoilName": "Body",
      "VariableFlipAngleFlag": "N",
      "WindowCenterWidthExplanation": "Algo1",
      "dBdt": 0.0},
    "slices": {}
  },
  "time": {
    "samples": {
      "AcquisitionNumber": [1, 2, 3, 4, 5, 6, 7, 8, 9, 10, 11, 12, 13, 14, 15, 16, 17, 18, 19, 20, 21, 22, 23, 24, 25, 26, 27, 28, 29, 30, 31, 32, 33, 34, 35, 36, 37, 38, 39, 40, 41, 42, 43, 44, 45, 46, 47, 48, 49, 50, 51, 52, 53, 54, 55, 56, 57, 58, 59, 60, 61, 62, 63, 64, 65, 66, 67, 68, 69, 70, 71, 72, 73, 74, 75, 76, 77, 78, 79, 80, 81, 82, 83, 84, 85, 86, 87, 88, 89, 90, 91, 92, 93, 94, 95, 96, 97, 98, 99, 100, 101, 102, 103, 104, 105, 106, 107, 108, 109, 110, 111, 112, 113, 114, 115, 116, 117, 118, 119, 120, 121, 122, 123, 124, 125, 126, 127, 128, 129, 130, 131, 132, 133, 134, 135, 136, 137, 138, 139, 140, 141, 142, 143, 144, 145, 146, 147, 148, 149, 150, 151, 152, 153, 154, 155, 156, 157, 158, 159, 160, 161, 162, 163, 164, 165, 166, 167, 168, 169, 170, 171, 172, 173, 174, 175, 176, 177, 178, 179, 180, 181, 182, 183, 184, 185, 186, 187, 188, 189, 190, 191, 192, 193, 194, 195, 196, 197, 198, 199, 200, 201, 202, 203, 204, 205, 206, 207, 208, 209, 210, 211, 212, 213, 214, 215, 216, 217, 218, 219, 220, 221, 222, 223, 224, 225, 226, 227, 228, 229, 230, 231, 232, 233, 234, 235, 236, 237, 238, 239, 240, 241, 242, 243, 244, 245, 246, 247, 248, 249, 250, 251, 252, 253, 254, 255, 256, 257, 258, 259, 260, 261, 262, 263, 264, 265, 266, 267, 268, 269, 270, 271, 272, 273, 274, 275, 276, 277, 278, 279, 280, 281, 282, 283, 284, 285, 286, 287, 288, 289, 290, 291, 292, 293, 294, 295, 296, 297, 298, 299, 300, 301, 302, 303, 304, 305, 306, 307, 308, 309, 310, 311, 312, 313, 314, 315, 316, 317, 318, 319, 320, 321, 322, 323, 324, 325, 326, 327, 328, 329, 330, 331, 332, 333, 334, 335, 336, 337, 338, 339, 340, 341, 342, 343, 344, 345, 346, 347, 348, 349, 350, 351, 352, 353, 354, 355, 356, 357, 358, 359, 360, 361, 362, 363, 364, 365, 366, 367, 368, 369, 370, 371, 372, 373, 374, 375, 376, 377, 378, 379, 380, 381, 382, 383, 384, 385, 386, 387, 388, 389, 390, 391, 392, 393, 394, 395, 396, 397, 398, 399, 400, 401, 402, 403, 404, 405, 406, 407, 408, 409, 410, 411, 412, 413, 414, 415, 416, 417, 418, 419, 420, 421, 422, 423, 424, 425, 426, 427, 428, 429, 430, 431, 432, 433, 434, 435, 436, 437, 438, 439, 440, 441, 442, 443, 444, 445, 446, 447, 448, 449, 450],
      "AcquisitionTime": ["150726.412500", "150728.420000", "150730.427500", "150732.435000", "150734.445000", "150736.452500", "150738.460000", "150740.467500", "150742.475000", "150744.485000", "150746.492500", "150748.500000", "150750.507500", "150752.515000", "150754.525000", "150756.532500", "150758.540000", "150800.547500", "150802.557500", "150804.565000", "150806.572500", "150808.580000", "150810.587500", "150812.597500", "150814.605000", "150816.612500", "150818.620000", "150820.627500", "150822.637500", "150824.645000", "150826.652500", "150828.660000", "150830.667500", "150832.677500", "150834.685000", "150836.692500", "150838.700000", "150840.710000", "150842.717500", "150844.725000", "150846.732500", "150848.740000", "150850.750000", "150852.757500", "150854.765000", "150856.772500", "150858.780000", "150900.790000", "150902.797500", "150904.805000", "150906.812500", "150908.822500", "150910.830000", "150912.837500", "150914.845000", "150916.852500", "150918.862500", "150920.870000", "150922.877500", "150924.885000", "150926.892500", "150928.902500", "150930.910000", "150932.917500", "150934.925000", "150936.935000", "150938.942500", "150940.950000", "150942.957500", "150944.965000", "150946.975000", "150948.982500", "150950.990000", "150952.997500", "150955.005000", "150957.015000", "150959.022500", "151001.030000", "151003.037500", "151005.047500", "151007.055000", "151009.062500", "151011.070000", "151013.077500", "151015.087500", "151017.095000", "151019.102500", "151021.110000", "151023.117500", "151025.127500", "151027.135000", "151029.142500", "151031.150000", "151033.157500", "151035.167500", "151037.175000", "151039.182500", "151041.190000", "151043.200000", "151045.207500", "151047.215000", "151049.222500", "151051.230000", "151053.240000", "151055.247500", "151057.255000", "151059.262500", "151101.270000", "151103.280000", "151105.287500", "151107.295000", "151109.302500", "151111.312500", "151113.320000", "151115.327500", "151117.335000", "151119.342500", "151121.352500", "151123.360000", "151125.367500", "151127.375000", "151129.382500", "151131.392500", "151133.400000", "151135.407500", "151137.415000", "151139.425000", "151141.432500", "151143.440000", "151145.447500", "151147.455000", "151149.465000", "151151.472500", "151153.480000", "151155.487500", "151157.495000", "151159.505000", "151201.512500", "151203.520000", "151205.527500", "151207.535000", "151209.545000", "151211.552500", "151213.560000", "151215.567500", "151217.577500", "151219.585000", "151221.592500", "151223.600000", "151225.607500", "151227.617500", "151229.625000", "151231.632500", "151233.640000", "151235.647500", "151237.657500", "151239.665000", "151241.672500", "151243.680000", "151245.690000", "151247.697500", "151249.705000", "151251.712500", "151253.720000", "151255.730000", "151257.737500", "151259.745000", "151301.752500", "151303.760000", "151305.770000", "151307.777500", "151309.785000", "151311.792500", "151313.802500", "151315.810000", "151317.817500", "151319.825000", "151321.832500", "151323.842500", "151325.850000", "151327.857500", "151329.865000", "151331.872500", "151333.882500", "151335.890000", "151337.897500", "151339.905000", "151341.912500", "151343.922500", "151345.930000", "151347.937500", "151349.945000", "151351.955000", "151353.962500", "151355.970000", "151357.977500", "151359.985000", "151401.995000", "151404.002500", "151406.010000", "151408.017500", "151410.025000", "151412.035000", "151414.042500", "151416.050000", "151418.057500", "151420.067500", "151422.075000", "151424.082500", "151426.090000", "151428.097500", "151430.107500", "151432.115000", "151434.122500", "151436.130000", "151438.137500", "151440.147500", "151442.155000", "151444.162500", "151446.170000", "151448.180000", "151450.187500", "151452.195000", "151454.202500", "151456.210000", "151458.220000", "151500.227500", "151502.235000", "151504.242500", "151506.250000", "151508.260000", "151510.267500", "151512.275000", "151514.282500", "151516.290000", "151518.300000", "151520.307500", "151522.315000", "151524.322500", "151526.332500", "151528.340000", "151530.347500", "151532.355000", "151534.362500", "151536.372500", "151538.380000", "151540.387500", "151542.395000", "151544.402500", "151546.412500", "151548.420000", "151550.427500", "151552.435000", "151554.445000", "151556.452500", "151558.460000", "151600.467500", "151602.475000", "151604.485000", "151606.492500", "151608.500000", "151610.507500", "151612.515000", "151614.525000", "151616.532500", "151618.540000", "151620.547500", "151622.557500", "151624.565000", "151626.572500", "151628.580000", "151630.587500", "151632.597500", "151634.605000", "151636.612500", "151638.620000", "151640.627500", "151642.637500", "151644.645000", "151646.652500", "151648.660000", "151650.667500", "151652.677500", "151654.685000", "151656.692500", "151658.700000", "151700.710000", "151702.717500", "151704.725000", "151706.732500", "151708.740000", "151710.750000", "151712.757500", "151714.765000", "151716.772500", "151718.780000", "151720.790000", "151722.797500", "151724.805000", "151726.812500", "151728.822500", "151730.830000", "151732.837500", "151734.845000", "151736.852500", "151738.862500", "151740.870000", "151742.877500", "151744.885000", "151746.892500", "151748.902500", "151750.910000", "151752.917500", "151754.925000", "151756.935000", "151758.942500", "151800.950000", "151802.957500", "151804.965000", "151806.975000", "151808.982500", "151810.990000", "151812.997500", "151815.005000", "151817.015000", "151819.022500", "151821.030000", "151823.037500", "151825.047500", "151827.055000", "151829.062500", "151831.070000", "151833.077500", "151835.087500", "151837.095000", "151839.102500", "151841.110000", "151843.117500", "151845.127500", "151847.135000", "151849.142500", "151851.150000", "151853.157500", "151855.167500", "151857.175000", "151859.182500", "151901.190000", "151903.200000", "151905.207500", "151907.215000", "151909.222500", "151911.230000", "151913.240000", "151915.247500", "151917.255000", "151919.262500", "151921.270000", "151923.280000", "151925.287500", "151927.295000", "151929.302500", "151931.312500", "151933.320000", "151935.327500", "151937.335000", "151939.342500", "151941.352500", "151943.360000", "151945.367500", "151947.375000", "151949.382500", "151951.392500", "151953.400000", "151955.407500", "151957.415000", "151959.425000", "152001.432500", "152003.440000", "152005.447500", "152007.455000", "152009.465000", "152011.472500", "152013.480000", "152015.487500", "152017.495000", "152019.505000", "152021.512500", "152023.520000", "152025.527500", "152027.535000", "152029.545000", "152031.552500", "152033.560000", "152035.567500", "152037.577500", "152039.585000", "152041.592500", "152043.600000", "152045.607500", "152047.617500", "152049.625000", "152051.632500", "152053.640000", "152055.647500", "152057.657500", "152059.665000", "152101.672500", "152103.680000", "152105.690000", "152107.697500", "152109.705000", "152111.712500", "152113.720000", "152115.730000", "152117.737500", "152119.745000", "152121.752500", "152123.760000", "152125.770000", "152127.777500", "152129.785000", "152131.792500", "152133.802500", "152135.810000", "152137.817500", "152139.825000", "152141.832500", "152143.842500", "152145.850000", "152147.857500", "152149.865000", "152151.872500", "152153.882500", "152155.890000", "152157.897500", "152159.905000", "152201.912500", "152203.922500", "152205.930000", "152207.937500", "152209.945000", "152211.955000", "152213.962500", "152215.970000", "152217.977500", "152219.985000", "152221.995000", "152224.002500", "152226.010000", "152228.017500"],
      "ContentTime": ["150743.406000", "150743.406000", "150743.421000", "150743.421000", "150743.421000", "150743.437000", "150743.437000", "150743.437000", "150823.406000", "150823.406000", "150823.406000", "150823.406000", "150823.421000", "150823.421000", "150823.421000", "150823.421000", "150823.421000", "150823.421000", "150823.421000", "150823.437000", "150823.437000", "150823.437000", "150823.437000", "150823.437000", "150823.453000", "150823.453000", "150823.453000", "150823.468000", "150903.406000", "150903.406000", "150903.406000", "150903.406000", "150903.406000", "150903.406000", "150903.406000", "150903.421000", "150903.421000", "150903.421000", "150903.421000", "150903.421000", "150903.421000", "150903.437000", "150903.437000", "150903.437000", "150903.453000", "150903.453000", "150903.453000", "150903.453000", "150943.406000", "150943.406000", "150943.406000", "150943.406000", "150943.421000", "150943.421000", "150943.421000", "150943.421000", "150943.421000", "150943.421000", "150943.421000", "150943.437000", "150943.437000", "150943.437000", "150943.437000", "150943.437000", "150943.453000", "150943.468000", "150943.468000", "150943.468000", "151023.406000", "151023.406000", "151023.406000", "151023.406000", "151023.421000", "151023.421000", "151023.421000", "151023.421000", "151023.421000", "151023.421000", "151023.421000", "151023.437000", "151023.437000", "151023.453000", "151023.453000", "151023.453000", "151023.468000", "151023.468000", "151023.468000", "151023.468000", "151103.406000", "151103.406000", "151103.406000", "151103.406000", "151103.421000", "151103.421000", "151103.421000", "151103.421000", "151103.421000", "151103.421000", "151103.421000", "151103.437000", "151103.437000", "151103.437000", "151103.437000", "151103.437000", "151103.437000", "151103.437000", "151103.453000", "151103.453000", "151143.406000", "151143.406000", "151143.421000", "151143.421000", "151143.437000", "151143.437000", "151143.437000", "151143.437000", "151143.437000", "151143.437000", "151143.453000", "151143.453000", "151143.453000", "151143.453000", "151143.468000", "151143.468000", "151143.468000", "151143.468000", "151143.468000", "151143.468000", "151223.406000", "151223.406000", "151223.406000", "151223.406000", "151223.406000", "151223.406000", "151223.406000", "151223.421000", "151223.421000", "151223.421000", "151223.421000", "151223.421000", "151223.421000", "151223.421000", "151223.437000", "151223.437000", "151223.437000", "151223.437000", "151223.437000", "151223.437000", "151303.406000", "151303.406000", "151303.406000", "151303.406000", "151303.406000", "151303.406000", "151303.421000", "151303.421000", "151303.421000", "151303.421000", "151303.421000", "151303.421000", "151303.421000", "151303.437000", "151303.437000", "151303.437000", "151303.437000", "151303.437000", "151303.437000", "151303.437000", "151343.406000", "151343.406000", "151343.406000", "151343.406000", "151343.406000", "151343.406000", "151343.406000", "151343.421000", "151343.421000", "151343.421000", "151343.437000", "151343.437000", "151343.437000", "151343.437000", "151343.437000", "151343.437000", "151343.437000", "151343.453000", "151343.453000", "151343.453000", "151423.406000", "151423.406000", "151423.421000", "151423.421000", "151423.421000", "151423.421000", "151423.421000", "151423.421000", "151423.421000", "151423.437000", "151423.437000", "151423.437000", "151423.437000", "151423.437000", "151423.453000", "151423.453000", "151423.453000", "151423.453000", "151423.468000", "151423.468000", "151503.406000", "151503.406000", "151503.406000", "151503.406000", "151503.421000", "151503.421000", "151503.421000", "151503.421000", "151503.421000", "151503.421000", "151503.437000", "151503.437000", "151503.437000", "151503.437000", "151503.437000", "151503.437000", "151503.437000", "151503.453000", "151503.453000", "151503.453000", "151543.406000", "151543.406000", "151543.406000", "151543.406000", "151543.406000", "151543.406000", "151543.421000", "151543.421000", "151543.421000", "151543.421000", "151543.421000", "151543.421000", "151543.421000", "151543.421000", "151543.437000", "151543.437000", "151543.437000", "151543.437000", "151543.437000", "151543.437000", "151623.406000", "151623.406000", "151623.406000", "151623.406000", "151623.406000", "151623.406000", "151623.421000", "151623.421000", "151623.421000", "151623.421000", "151623.421000", "151623.421000", "151623.421000", "151623.437000", "151623.437000", "151623.437000", "151623.437000", "151623.453000", "151623.453000", "151623.453000", "151703.406000", "151703.406000", "151703.406000", "151703.406000", "151703.406000", "151703.406000", "151703.421000", "151703.421000", "151703.421000", "151703.437000", "151703.437000", "151703.437000", "151703.437000", "151703.437000", "151703.453000", "151703.453000", "151703.453000", "151703.453000", "151703.453000", "151703.468000", "151743.406000", "151743.406000", "151743.406000", "151743.406000", "151743.421000", "151743.421000", "151743.421000", "151743.421000", "151743.421000", "151743.421000", "151743.421000", "151743.421000", "151743.437000", "151743.437000", "151743.437000", "151743.437000", "151743.437000", "151743.437000", "151743.437000", "151743.453000", "151823.406000", "151823.406000", "151823.421000", "151823.421000", "151823.421000", "151823.421000", "151823.421000", "151823.437000", "151823.437000", "151823.437000", "151823.437000", "151823.437000", "151823.437000", "151823.437000", "151823.453000", "151823.453000", "151823.453000", "151823.453000", "151823.453000", "151823.453000", "151903.406000", "151903.406000", "151903.406000", "151903.406000", "151903.406000", "151903.406000", "151903.421000", "151903.421000", "151903.421000", "151903.421000", "151903.421000", "151903.437000", "151903.437000", "151903.437000", "151903.437000", "151903.437000", "151903.453000", "151903.453000", "151903.453000", "151903.453000", "151943.406000", "151943.406000", "151943.406000", "151943.406000", "151943.406000", "151943.406000", "151943.421000", "151943.421000", "151943.421000", "151943.421000", "151943.421000", "151943.421000", "151943.421000", "151943.437000", "151943.437000", "151943.437000", "151943.437000", "151943.437000", "151943.437000", "151943.437000", "152023.406000", "152023.406000", "152023.406000", "152023.406000", "152023.406000", "152023.406000", "152023.421000", "152023.421000", "152023.421000", "152023.421000", "152023.421000", "152023.421000", "152023.421000", "152023.421000", "152023.437000", "152023.437000", "152023.437000", "152023.437000", "152023.437000", "152023.437000", "152103.406000", "152103.406000", "152103.406000", "152103.406000", "152103.406000", "152103.421000", "152103.421000", "152103.421000", "152103.421000", "152103.421000", "152103.421000", "152103.421000", "152103.437000", "152103.437000", "152103.437000", "152103.437000", "152103.437000", "152103.437000", "152103.437000", "152103.453000", "152143.406000", "152143.406000", "152143.406000", "152143.406000", "152143.406000", "152143.406000", "152143.421000", "152143.421000", "152143.421000", "152143.421000", "152143.421000", "152143.421000", "152143.421000", "152143.437000", "152143.437000", "152143.437000", "152143.437000", "152143.437000", "152143.437000", "152143.437000", "152223.406000", "152223.406000", "152223.406000", "152223.406000", "152223.406000", "152223.406000", "152223.421000", "152223.421000", "152223.421000", "152223.421000", "152223.421000", "152223.421000", "152223.421000", "152223.421000", "152223.437000", "152223.437000", "152223.437000", "152223.453000", "152223.453000", "152223.453000", "152226.156000", "152226.156000"],
