{
  "AcquisitionMatrixPE": 72,
  "AcquisitionNumber": 1,
  "AcquisitionTime": "14:46:7.507500",
  "BandwidthPerPixelPhaseEncode": 28.935,
  "BaseResolution": 72,
  "CoilString": "C:HEA;HEP",
  "ConversionSoftware": "dcm2niix",
  "ConversionSoftwareVersion": "v1.0.20190410  GCC6.3.0",
  "DerivedVendorReportedEchoSpacing": 0.000480003,
  "DeviceSerialNumber": "35149",
  "DwellTime": 2.9e-06,
  "EchoTime": 0.025,
  "EffectiveEchoSpacing": 0.000480003,
  "FlipAngle": 75,
  "ImageOrientationPatientDICOM": [0.997916, -0.0517914, -0.0384756, 0.0307641, 0.906147, -0.421843],
  "ImageType": [
    "ORIGINAL",
    "PRIMARY",
    "M",
    "ND",
    "MOSAIC"
],
  "ImagingFrequency": 123.255,
  "InPlanePhaseEncodingDirectionDICOM": "COL",
  "InstitutionAddress": "Street_StreetNo_Rehovot_91E162_District_IL_ZIP",
  "InstitutionName": "Weizmann",
  "InstitutionalDepartmentName": "Department",
  "MRAcquisitionType": "2D",
  "MagneticFieldStrength": 3,
  "Manufacturer": "Siemens",
  "ManufacturersModelName": "TrioTim",
  "Modality": "MR",
  "PartialFourier": 1,
  "PatientPosition": "HFS",
  "PercentPhaseFOV": 100,
  "PhaseEncodingDirection": "j-",
  "PhaseEncodingSteps": 72,
  "PhaseResolution": 1,
  "PixelBandwidth": 2395,
  "ProcedureStepDescription": "Weizmann_Sobel",
  "ProtocolName": "exp1_30_to_AC-PC",
  "PulseSequenceDetails": "%SiemensSeq%_ep2d_pace",
  "ReceiveCoilName": "HeadMatrix",
  "ReconMatrixPE": 72,
  "RepetitionTime": 2,
  "SAR": 0.173014,
  "ScanOptions": "FS",
  "ScanningSequence": "EP",
  "SequenceName": "_epfid2d1_72",
  "SequenceVariant": "SK",
  "SeriesDescription": "exp1_30_to_AC-PC",
  "SeriesNumber": 3,
  "ShimSetting": [2356, 9320, -5602, 844, 175, -692, 144, 58],
  "SliceThickness": 3.7,
  "SliceTiming": [0.995, 0, 1.0525, 0.0575, 1.11, 0.1175, 1.17, 0.175, 1.2275, 0.235, 1.285, 0.2925, 1.345, 0.35, 1.4025, 0.41, 1.4625, 0.4675, 1.52, 0.525, 1.5775, 0.585, 1.6375, 0.6425, 1.695, 0.7025, 1.7525, 0.76, 1.8125, 0.8175, 1.87, 0.8775, 1.93, 0.935],
  "SoftwareVersions": "syngo_MR_B17",
  "SpacingBetweenSlices": 3.7,
  "StationName": "MRC35149",
  "TaskName": "blank",
  "TotalReadoutTime": 0.0340802,
  "TxRefAmp": 305.013,
  "VendorReportedEchoSpacing": 0.00048,
  "dcmmeta_affine": [
    [-2.9937493801116943, 0.09229228645563126, -0.2098359614610672, 106.15274810791016],
    [0.15537433326244354, 2.7184407711029053, -1.5531864166259766, -58.415184020996094],
    [-0.11542689055204391, 1.2655280828475952, 3.351653575897217, -71.17973327636719],
    [0.0, 0.0, 0.0, 1.0]
],
  "dcmmeta_reorient_transform": [
    [0.0, -1.0, 0.0, 71.0],
    [1.0, 0.0, 0.0, 0.0],
    [0.0, 0.0, 1.0, 0.0],
    [0.0, 0.0, 0.0, 1.0]
],
  "dcmmeta_shape": [72, 72, 34, 450],
  "dcmmeta_slice_dim": 2,
  "dcmmeta_version": 0.6,
  "global": {
    "const": {
      "AcquisitionMatrix": [72, 0, 0, 72],
      "AngioFlag": "N",
      "BitsAllocated": 16,
      "BitsStored": 12,
      "Columns": 432,
      "EchoNumbers": 1,
      "EchoTime": 25.0,
      "EchoTrainLength": 1,
      "FlipAngle": 75.0,
      "HighBit": 11,
      "ImageOrientationPatient": [0.99791646548932, -0.0517914449963, -0.0384756303456, 0.03076409532982, 0.90614696255521, -0.4218426871365],
      "ImagePositionPatient": [-668.19300047062, -595.94609821751, 267.24465138122],
      "ImageType": [
        "ORIGINAL",
        "PRIMARY",
        "M",
        "ND",
        "MOSAIC"
],
      "ImagedNucleus": "1H",
      "ImagingFrequency": 123.254811,
      "InPlanePhaseEncodingDirection": "COL",
      "MRAcquisitionType": "2D",
      "MagneticFieldStrength": 3.0,
      "Manufacturer": "SIEMENS",
      "ManufacturerModelName": "TrioTim",
      "Modality": "MR",
      "NumberOfAverages": 1.0,
      "NumberOfPhaseEncodingSteps": 72,
      "PercentPhaseFieldOfView": 100.0,
      "PercentSampling": 100.0,
      "PerformedProcedureStepStartTime": "144157.593000",
      "PhotometricInterpretation": "MONOCHROME2",
      "PixelBandwidth": 2395.0,
      "PixelRepresentation": 0,
      "PixelSpacing": [3.0, 3.0],
      "ProtocolName": "exp1_30_to_AC-PC",
      "RepetitionTime": 2000.0,
      "Rows": 432,
      "SAR": 0.17301379527041,
      "SamplesPerPixel": 1,
      "ScanOptions": "FS",
      "ScanningSequence": "EP",
      "SequenceName": "*epfid2d1_72",
      "SequenceVariant": "SK",
      "SeriesDescription": "exp1_30_to_AC-PC",
      "SeriesNumber": 3,
      "SeriesTime": "144704.718000",
      "SliceLocation": -45.976970908885,
      "SliceThickness": 3.7000000476837,
      "SmallestImagePixelValue": 0,
      "SoftwareVersions": "syngo MR B17",
      "SpacingBetweenSlices": 3.7000001420258,
      "SpecificCharacterSet": "ISO_IR 100",
      "StudyID": "1",
      "StudyTime": "144157.546000",
      "TransmitCoilName": "Body",
      "VariableFlipAngleFlag": "N",
      "WindowCenterWidthExplanation": "Algo1",
      "dBdt": 0.0},
    "slices": {}
  },
  "time": {
    "samples": {
      "AcquisitionNumber": [1, 2, 3, 4, 5, 6, 7, 8, 9, 10, 11, 12, 13, 14, 15, 16, 17, 18, 19, 20, 21, 22, 23, 24, 25, 26, 27, 28, 29, 30, 31, 32, 33, 34, 35, 36, 37, 38, 39, 40, 41, 42, 43, 44, 45, 46, 47, 48, 49, 50, 51, 52, 53, 54, 55, 56, 57, 58, 59, 60, 61, 62, 63, 64, 65, 66, 67, 68, 69, 70, 71, 72, 73, 74, 75, 76, 77, 78, 79, 80, 81, 82, 83, 84, 85, 86, 87, 88, 89, 90, 91, 92, 93, 94, 95, 96, 97, 98, 99, 100, 101, 102, 103, 104, 105, 106, 107, 108, 109, 110, 111, 112, 113, 114, 115, 116, 117, 118, 119, 120, 121, 122, 123, 124, 125, 126, 127, 128, 129, 130, 131, 132, 133, 134, 135, 136, 137, 138, 139, 140, 141, 142, 143, 144, 145, 146, 147, 148, 149, 150, 151, 152, 153, 154, 155, 156, 157, 158, 159, 160, 161, 162, 163, 164, 165, 166, 167, 168, 169, 170, 171, 172, 173, 174, 175, 176, 177, 178, 179, 180, 181, 182, 183, 184, 185, 186, 187, 188, 189, 190, 191, 192, 193, 194, 195, 196, 197, 198, 199, 200, 201, 202, 203, 204, 205, 206, 207, 208, 209, 210, 211, 212, 213, 214, 215, 216, 217, 218, 219, 220, 221, 222, 223, 224, 225, 226, 227, 228, 229, 230, 231, 232, 233, 234, 235, 236, 237, 238, 239, 240, 241, 242, 243, 244, 245, 246, 247, 248, 249, 250, 251, 252, 253, 254, 255, 256, 257, 258, 259, 260, 261, 262, 263, 264, 265, 266, 267, 268, 269, 270, 271, 272, 273, 274, 275, 276, 277, 278, 279, 280, 281, 282, 283, 284, 285, 286, 287, 288, 289, 290, 291, 292, 293, 294, 295, 296, 297, 298, 299, 300, 301, 302, 303, 304, 305, 306, 307, 308, 309, 310, 311, 312, 313, 314, 315, 316, 317, 318, 319, 320, 321, 322, 323, 324, 325, 326, 327, 328, 329, 330, 331, 332, 333, 334, 335, 336, 337, 338, 339, 340, 341, 342, 343, 344, 345, 346, 347, 348, 349, 350, 351, 352, 353, 354, 355, 356, 357, 358, 359, 360, 361, 362, 363, 364, 365, 366, 367, 368, 369, 370, 371, 372, 373, 374, 375, 376, 377, 378, 379, 380, 381, 382, 383, 384, 385, 386, 387, 388, 389, 390, 391, 392, 393, 394, 395, 396, 397, 398, 399, 400, 401, 402, 403, 404, 405, 406, 407, 408, 409, 410, 411, 412, 413, 414, 415, 416, 417, 418, 419, 420, 421, 422, 423, 424, 425, 426, 427, 428, 429, 430, 431, 432, 433, 434, 435, 436, 437, 438, 439, 440, 441, 442, 443, 444, 445, 446, 447, 448, 449, 450],
      "AcquisitionTime": ["144607.507500", "144609.515000", "144611.522500", "144613.530000", "144615.537500", "144617.547500", "144619.555000", "144621.562500", "144623.570000", "144625.577500", "144627.587500", "144629.595000", "144631.602500", "144633.610000", "144635.617500", "144637.627500", "144639.635000", "144641.642500", "144643.650000", "144645.660000", "144647.667500", "144649.675000", "144651.682500", "144653.690000", "144655.700000", "144657.707500", "144659.715000", "144701.722500", "144703.730000", "144705.740000", "144707.747500", "144709.755000", "144711.762500", "144713.772500", "144715.780000", "144717.787500", "144719.795000", "144721.802500", "144723.812500", "144725.820000", "144727.827500", "144729.835000", "144731.842500", "144733.852500", "144735.860000", "144737.867500", "144739.875000", "144741.885000", "144743.892500", "144745.900000", "144747.907500", "144749.915000", "144751.925000", "144753.932500", "144755.940000", "144757.947500", "144759.955000", "144801.965000", "144803.972500", "144805.980000", "144807.987500", "144809.995000", "144812.005000", "144814.012500", "144816.020000", "144818.027500", "144820.037500", "144822.045000", "144824.052500", "144826.060000", "144828.067500", "144830.077500", "144832.085000", "144834.092500", "144836.100000", "144838.107500", "144840.117500", "144842.125000", "144844.132500", "144846.140000", "144848.150000", "144850.157500", "144852.165000", "144854.172500", "144856.180000", "144858.190000", "144900.197500", "144902.205000", "144904.212500", "144906.220000", "144908.230000", "144910.237500", "144912.245000", "144914.252500", "144916.262500", "144918.270000", "144920.277500", "144922.285000", "144924.292500", "144926.302500", "144928.310000", "144930.317500", "144932.325000", "144934.332500", "144936.342500", "144938.350000", "144940.357500", "144942.365000", "144944.372500", "144946.382500", "144948.390000", "144950.397500", "144952.405000", "144954.415000", "144956.422500", "144958.430000", "145000.437500", "145002.445000", "145004.455000", "145006.462500", "145008.470000", "145010.477500", "145012.485000", "145014.495000", "145016.502500", "145018.510000", "145020.517500", "145022.527500", "145024.535000", "145026.542500", "145028.550000", "145030.557500", "145032.567500", "145034.575000", "145036.582500", "145038.590000", "145040.597500", "145042.607500", "145044.615000", "145046.622500", "145048.630000", "145050.640000", "145052.647500", "145054.655000", "145056.662500", "145058.670000", "145100.680000", "145102.687500", "145104.695000", "145106.702500", "145108.710000", "145110.720000", "145112.727500", "145114.735000", "145116.742500", "145118.752500", "145120.760000", "145122.767500", "145124.775000", "145126.782500", "145128.792500", "145130.800000", "145132.807500", "145134.815000", "145136.822500", "145138.832500", "145140.840000", "145142.847500", "145144.855000", "145146.862500", "145148.872500", "145150.880000", "145152.887500", "145154.895000", "145156.905000", "145158.912500", "145200.920000", "145202.927500", "145204.935000", "145206.945000", "145208.952500", "145210.960000", "145212.967500", "145214.975000", "145216.985000", "145218.992500", "145221.000000", "145223.007500", "145225.017500", "145227.025000", "145229.032500", "145231.040000", "145233.047500", "145235.057500", "145237.065000", "145239.072500", "145241.080000", "145243.087500", "145245.097500", "145247.105000", "145249.112500", "145251.120000", "145253.130000", "145255.137500", "145257.145000", "145259.152500", "145301.160000", "145303.170000", "145305.177500", "145307.185000", "145309.192500", "145311.200000", "145313.210000", "145315.217500", "145317.225000", "145319.232500", "145321.240000", "145323.250000", "145325.257500", "145327.265000", "145329.272500", "145331.282500", "145333.290000", "145335.297500", "145337.305000", "145339.312500", "145341.322500", "145343.330000", "145345.337500", "145347.345000", "145349.352500", "145351.362500", "145353.370000", "145355.377500", "145357.385000", "145359.395000", "145401.402500", "145403.410000", "145405.417500", "145407.425000", "145409.435000", "145411.442500", "145413.450000", "145415.457500", "145417.465000", "145419.475000", "145421.482500", "145423.490000", "145425.497500", "145427.507500", "145429.515000", "145431.522500", "145433.530000", "145435.537500", "145437.547500", "145439.555000", "145441.562500", "145443.570000", "145445.577500", "145447.587500", "145449.595000", "145451.602500", "145453.610000", "145455.617500", "145457.627500", "145459.635000", "145501.642500", "145503.650000", "145505.660000", "145507.667500", "145509.675000", "145511.682500", "145513.690000", "145515.700000", "145517.707500", "145519.715000", "145521.722500", "145523.730000", "145525.740000", "145527.747500", "145529.755000", "145531.762500", "145533.772500", "145535.780000", "145537.787500", "145539.795000", "145541.802500", "145543.812500", "145545.820000", "145547.827500", "145549.835000", "145551.842500", "145553.852500", "145555.860000", "145557.867500", "145559.875000", "145601.885000", "145603.892500", "145605.900000", "145607.907500", "145609.915000", "145611.925000", "145613.932500", "145615.940000", "145617.947500", "145619.955000", "145621.965000", "145623.972500", "145625.980000", "145627.987500", "145629.995000", "145632.005000", "145634.012500", "145636.020000", "145638.027500", "145640.037500", "145642.045000", "145644.052500", "145646.060000", "145648.067500", "145650.077500", "145652.085000", "145654.092500", "145656.100000", "145658.107500", "145700.117500", "145702.125000", "145704.132500", "145706.140000", "145708.150000", "145710.157500", "145712.165000", "145714.172500", "145716.180000", "145718.190000", "145720.197500", "145722.205000", "145724.212500", "145726.220000", "145728.230000", "145730.237500", "145732.245000", "145734.252500", "145736.262500", "145738.270000", "145740.277500", "145742.285000", "145744.292500", "145746.302500", "145748.310000", "145750.317500", "145752.325000", "145754.332500", "145756.342500", "145758.350000", "145800.357500", "145802.365000", "145804.372500", "145806.382500", "145808.390000", "145810.397500", "145812.405000", "145814.415000", "145816.422500", "145818.430000", "145820.437500", "145822.445000", "145824.455000", "145826.462500", "145828.470000", "145830.477500", "145832.485000", "145834.495000", "145836.502500", "145838.510000", "145840.517500", "145842.527500", "145844.535000", "145846.542500", "145848.550000", "145850.557500", "145852.567500", "145854.575000", "145856.582500", "145858.590000", "145900.597500", "145902.607500", "145904.615000", "145906.622500", "145908.630000", "145910.640000", "145912.647500", "145914.655000", "145916.662500", "145918.670000", "145920.680000", "145922.687500", "145924.695000", "145926.702500", "145928.710000", "145930.720000", "145932.727500", "145934.735000", "145936.742500", "145938.752500", "145940.760000", "145942.767500", "145944.775000", "145946.782500", "145948.792500", "145950.800000", "145952.807500", "145954.815000", "145956.822500", "145958.832500", "150000.840000", "150002.847500", "150004.855000", "150006.862500", "150008.872500", "150010.880000", "150012.887500", "150014.895000", "150016.905000", "150018.912500", "150020.920000", "150022.927500", "150024.935000", "150026.945000", "150028.952500", "150030.960000", "150032.967500", "150034.975000", "150036.985000", "150038.992500", "150041.000000", "150043.007500", "150045.017500", "150047.025000", "150049.032500", "150051.040000", "150053.047500", "150055.057500", "150057.065000", "150059.072500", "150101.080000", "150103.087500", "150105.097500", "150107.105000", "150109.112500"],
      "ContentTime": ["144704.718000", "144704.718000", "144704.718000", "144704.734000", "144704.734000", "144704.734000", "144704.734000", "144704.734000", "144704.734000", "144704.734000", "144704.750000", "144704.750000", "144704.750000", "144704.750000", "144704.750000", "144704.765000", "144704.765000", "144704.765000", "144704.765000", "144704.765000", "144704.765000", "144704.765000", "144704.781000", "144704.781000", "144704.781000", "144704.781000", "144704.781000", "144704.781000", "144744.703000", "144744.718000", "144744.718000", "144744.718000", "144744.718000", "144744.718000", "144744.718000", "144744.718000", "144744.734000", "144744.734000", "144744.734000", "144744.734000", "144744.750000", "144744.750000", "144744.750000", "144744.750000", "144744.750000", "144744.750000", "144744.750000", "144744.765000", "144824.703000", "144824.718000", "144824.718000", "144824.718000", "144824.718000", "144824.718000", "144824.718000", "144824.734000", "144824.734000", "144824.734000", "144824.734000", "144824.734000", "144824.734000", "144824.734000", "144824.750000", "144824.750000", "144824.750000", "144824.750000", "144824.750000", "144824.750000", "144904.703000", "144904.718000", "144904.718000", "144904.718000", "144904.718000", "144904.718000", "144904.718000", "144904.734000", "144904.734000", "144904.734000", "144904.734000", "144904.734000", "144904.734000", "144904.734000", "144904.750000", "144904.750000", "144904.750000", "144904.750000", "144904.750000", "144904.750000", "144944.703000", "144944.718000", "144944.718000", "144944.718000", "144944.718000", "144944.718000", "144944.718000", "144944.718000", "144944.734000", "144944.734000", "144944.734000", "144944.734000", "144944.734000", "144944.734000", "144944.734000", "144944.734000", "144944.750000", "144944.750000", "144944.750000", "144944.750000", "145024.703000", "145024.718000", "145024.718000", "145024.718000", "145024.718000", "145024.718000", "145024.718000", "145024.718000", "145024.734000", "145024.734000", "145024.734000", "145024.734000", "145024.734000", "145024.734000", "145024.734000", "145024.750000", "145024.750000", "145024.750000", "145024.750000", "145024.750000", "145104.718000", "145104.718000", "145104.718000", "145104.718000", "145104.734000", "145104.734000", "145104.734000", "145104.734000", "145104.734000", "145104.734000", "145104.750000", "145104.750000", "145104.750000", "145104.750000", "145104.750000", "145104.750000", "145104.765000", "145104.765000", "145104.765000", "145104.765000", "145144.703000", "145144.718000", "145144.718000", "145144.718000", "145144.718000", "145144.718000", "145144.734000", "145144.734000", "145144.734000", "145144.734000", "145144.734000", "145144.734000", "145144.750000", "145144.750000", "145144.750000", "145144.750000", "145144.765000", "145144.765000", "145144.765000", "145144.765000", "145224.703000", "145224.718000", "145224.718000", "145224.718000", "145224.718000", "145224.718000", "145224.718000", "145224.718000", "145224.734000", "145224.734000", "145224.734000", "145224.734000", "145224.734000", "145224.734000", "145224.750000", "145224.750000", "145224.750000", "145224.765000", "145224.765000", "145224.765000", "145304.703000", "145304.718000", "145304.718000", "145304.718000", "145304.718000", "145304.718000", "145304.734000", "145304.734000", "145304.734000", "145304.734000", "145304.734000", "145304.734000", "145304.734000", "145304.750000", "145304.750000", "145304.750000", "145304.750000", "145304.765000", "145304.765000", "145304.765000", "145344.703000", "145344.718000", "145344.718000", "145344.718000", "145344.718000", "145344.718000", "145344.718000", "145344.718000", "145344.734000", "145344.734000", "145344.734000", "145344.734000", "145344.750000", "145344.750000", "145344.750000", "145344.765000", "145344.765000", "145344.765000", "145344.765000", "145344.765000", "145424.703000", "145424.718000", "145424.718000", "145424.718000", "145424.718000", "145424.718000", "145424.718000", "145424.718000", "145424.734000", "145424.734000", "145424.734000", "145424.734000", "145424.734000", "145424.750000", "145424.750000", "145424.750000", "145424.750000", "145424.750000", "145424.750000", "145424.750000", "145504.703000", "145504.718000", "145504.718000", "145504.718000", "145504.718000", "145504.718000", "145504.734000", "145504.734000", "145504.750000", "145504.750000", "145504.750000", "145504.750000", "145504.765000", "145504.765000", "145504.765000", "145504.765000", "145504.765000", "145504.765000", "145504.765000", "145504.781000", "145544.703000", "145544.718000", "145544.718000", "145544.718000", "145544.718000", "145544.718000", "145544.718000", "145544.718000", "145544.734000", "145544.734000", "145544.734000", "145544.734000", "145544.734000", "145544.734000", "145544.750000", "145544.750000", "145544.750000", "145544.750000", "145544.750000", "145544.765000", "145624.703000", "145624.718000", "145624.718000", "145624.718000", "145624.718000", "145624.718000", "145624.734000", "145624.734000", "145624.734000", "145624.734000", "145624.734000", "145624.734000", "145624.734000", "145624.750000", "145624.750000", "145624.750000", "145624.750000", "145624.750000", "145624.750000", "145624.750000", "145704.703000", "145704.718000", "145704.718000", "145704.718000", "145704.718000", "145704.718000", "145704.718000", "145704.718000", "145704.734000", "145704.734000", "145704.734000", "145704.734000", "145704.734000", "145704.734000", "145704.734000", "145704.750000", "145704.750000", "145704.750000", "145704.750000", "145704.750000", "145744.703000", "145744.718000", "145744.718000", "145744.718000", "145744.718000", "145744.718000", "145744.718000", "145744.718000", "145744.734000", "145744.734000", "145744.734000", "145744.734000", "145744.734000", "145744.734000", "145744.734000", "145744.750000", "145744.750000", "145744.750000", "145744.750000", "145744.750000", "145824.703000", "145824.718000", "145824.718000", "145824.718000", "145824.718000", "145824.718000", "145824.718000", "145824.718000", "145824.734000", "145824.734000", "145824.734000", "145824.734000", "145824.734000", "145824.734000", "145824.734000", "145824.750000", "145824.750000", "145824.750000", "145824.750000", "145824.750000", "145904.703000", "145904.718000", "145904.718000", "145904.718000", "145904.718000", "145904.718000", "145904.718000", "145904.718000", "145904.734000", "145904.734000", "145904.734000", "145904.734000", "145904.734000", "145904.734000", "145904.734000", "145904.750000", "145904.750000", "145904.750000", "145904.750000", "145904.750000", "145944.703000", "145944.718000", "145944.718000", "145944.718000", "145944.718000", "145944.718000", "145944.718000", "145944.718000", "145944.734000", "145944.734000", "145944.734000", "145944.734000", "145944.734000", "145944.750000", "145944.750000", "145944.750000", "145944.750000", "145944.765000", "145944.765000", "145944.765000", "150024.703000", "150024.718000", "150024.718000", "150024.718000", "150024.718000", "150024.718000", "150024.734000", "150024.734000", "150024.750000", "150024.750000", "150024.750000", "150024.750000", "150024.750000", "150024.750000", "150024.750000", "150024.765000", "150024.765000", "150024.765000", "150024.765000", "150024.781000", "150104.703000", "150104.718000", "150104.718000", "150104.718000", "150104.718000", "150104.718000", "150104.718000", "150104.718000", "150104.734000", "150104.734000", "150104.734000", "150104.750000", "150104.750000", "150104.750000", "150104.750000", "150104.750000", "150104.750000", "150104.750000", "150104.765000", "150104.765000", "150107.078000", "150107.078000"],
