{
  "AcquisitionMatrixPE": 72,
  "AcquisitionNumber": 1,
  "AcquisitionTime": "11:06:29.570000",
  "BandwidthPerPixelPhaseEncode": 28.935,
  "BaseResolution": 72,
  "CoilString": "C:HEA;HEP",
  "ConversionSoftware": "dcm2niix",
  "ConversionSoftwareVersion": "v1.0.20190410  GCC6.3.0",
  "DerivedVendorReportedEchoSpacing": 0.000480003,
  "DeviceSerialNumber": "35149",
  "DwellTime": 2.9e-06,
  "EchoTime": 0.025,
  "EffectiveEchoSpacing": 0.000480003,
  "FlipAngle": 75,
  "ImageOrientationPatientDICOM": [0.993582, -0.0886304, 0.0702813, 0.106217, 0.944694, -0.310276],
  "ImageType": [
    "ORIGINAL",
    "PRIMARY",
    "M",
    "ND",
    "MOSAIC"
],
  "ImagingFrequency": 123.254,
  "InPlanePhaseEncodingDirectionDICOM": "COL",
  "InstitutionAddress": "Street_StreetNo_Rehovot_91E162_District_IL_ZIP",
  "InstitutionName": "Weizmann",
  "InstitutionalDepartmentName": "Department",
  "MRAcquisitionType": "2D",
  "MagneticFieldStrength": 3,
  "Manufacturer": "Siemens",
  "ManufacturersModelName": "TrioTim",
  "Modality": "MR",
  "PartialFourier": 1,
  "PatientPosition": "HFS",
  "PercentPhaseFOV": 100,
  "PhaseEncodingDirection": "j-",
  "PhaseEncodingSteps": 72,
  "PhaseResolution": 1,
  "PixelBandwidth": 2395,
  "ProcedureStepDescription": "Weizmann_Sobel",
  "ProtocolName": "exp1_30_to_AC-PC",
  "PulseSequenceDetails": "%SiemensSeq%_ep2d_pace",
  "ReceiveCoilName": "HeadMatrix",
  "ReconMatrixPE": 72,
  "RepetitionTime": 2,
  "SAR": 0.153306,
  "ScanOptions": "FS",
  "ScanningSequence": "EP",
  "SequenceName": "_epfid2d1_72",
  "SequenceVariant": "SK",
  "SeriesDescription": "exp1_30_to_AC-PC",
  "SeriesNumber": 11,
  "ShimSetting": [2359, 9274, -5460, 604, 4, -1110, 503, 142],
  "SliceThickness": 3.7,
  "SliceTiming": [0.9925, 0, 1.05, 0.0575, 1.11, 0.115, 1.1675, 0.175, 1.2275, 0.2325, 1.285, 0.29, 1.3425, 0.35, 1.4025, 0.4075, 1.46, 0.4675, 1.5175, 0.525, 1.5775, 0.5825, 1.635, 0.6425, 1.695, 0.7, 1.7525, 0.7575, 1.81, 0.8175, 1.87, 0.875, 1.9275, 0.935],
  "SoftwareVersions": "syngo_MR_B17",
  "SpacingBetweenSlices": 3.7,
  "StationName": "MRC35149",
  "TaskName": "bodyodor",
  "TotalReadoutTime": 0.0340802,
  "TxRefAmp": 291.259,
  "VendorReportedEchoSpacing": 0.00048,
  "dcmmeta_affine": [
    [-2.980746030807495, 0.31865066289901733, 0.14390917122364044, 97.78526306152344],
    [0.2658911347389221, 2.8340816497802734, -1.1682751178741455, -74.17097473144531],
    [0.2108437567949295, 0.9308289289474487, 3.5077664852142334, -63.23603439331055],
    [0.0, 0.0, 0.0, 1.0]
],
  "dcmmeta_reorient_transform": [
    [0.0, -1.0, 0.0, 71.0],
    [1.0, 0.0, 0.0, 0.0],
    [0.0, 0.0, 1.0, 0.0],
    [0.0, 0.0, 0.0, 1.0]
],
  "dcmmeta_shape": [72, 72, 34, 442],
  "dcmmeta_slice_dim": 2,
  "dcmmeta_version": 0.6,
  "global": {
    "const": {
      "AcquisitionMatrix": [72, 0, 0, 72],
      "AngioFlag": "N",
      "BitsAllocated": 16,
      "BitsStored": 12,
      "Columns": 432,
      "EchoNumbers": 1,
      "EchoTime": 25.0,
      "EchoTrainLength": 1,
      "FlipAngle": 75.0,
      "HighBit": 11,
      "ImageOrientationPatient": [0.99358200515592, -0.0886303801748, 0.07028125454498, 0.10621688804798, 0.94469391135028, -0.3102763067833],
      "ImagePositionPatient": [-714.30086355937, -589.32313182474, 132.45014536718],
      "ImageType": [
        "ORIGINAL",
        "PRIMARY",
        "M",
        "ND",
        "MOSAIC"
],
      "ImagedNucleus": "1H",
      "ImagingFrequency": 123.253854,
      "InPlanePhaseEncodingDirection": "COL",
      "MRAcquisitionType": "2D",
      "MagneticFieldStrength": 3.0,
      "Manufacturer": "SIEMENS",
      "ManufacturerModelName": "TrioTim",
      "Modality": "MR",
      "NumberOfAverages": 1.0,
      "NumberOfPhaseEncodingSteps": 72,
      "PercentPhaseFieldOfView": 100.0,
      "PercentSampling": 100.0,
      "PerformedProcedureStepStartTime": "101951.078000",
      "PhotometricInterpretation": "MONOCHROME2",
      "PixelBandwidth": 2395.0,
      "PixelRepresentation": 0,
      "PixelSpacing": [3.0, 3.0],
      "ProtocolName": "exp1_30_to_AC-PC",
      "RepetitionTime": 2000.0,
      "Rows": 432,
      "SAR": 0.15330612954033,
      "SamplesPerPixel": 1,
      "ScanOptions": "FS",
      "ScanningSequence": "EP",
      "SequenceName": "*epfid2d1_72",
      "SequenceVariant": "SK",
      "SeriesDescription": "exp1_30_to_AC-PC",
      "SeriesNumber": 11,
      "SeriesTime": "110714.375000",
      "SliceLocation": -32.727819433696,
      "SliceThickness": 3.7000000476837,
      "SmallestImagePixelValue": 0,
      "SoftwareVersions": "syngo MR B17",
      "SpacingBetweenSlices": 3.7000002390949,
      "SpecificCharacterSet": "ISO_IR 100",
      "StudyID": "1",
      "StudyTime": "101951.031000",
      "TransmitCoilName": "Body",
      "VariableFlipAngleFlag": "N",
      "WindowCenterWidthExplanation": "Algo1",
      "dBdt": 0.0},
    "slices": {}
  },
  "time": {
    "samples": {
      "AcquisitionNumber": [1, 2, 3, 4, 5, 6, 7, 8, 9, 10, 11, 12, 13, 14, 15, 16, 17, 18, 19, 20, 21, 22, 23, 24, 25, 26, 27, 28, 29, 30, 31, 32, 33, 34, 35, 36, 37, 38, 39, 40, 41, 42, 43, 44, 45, 46, 47, 48, 49, 50, 51, 52, 53, 54, 55, 56, 57, 58, 59, 60, 61, 62, 63, 64, 65, 66, 67, 68, 69, 70, 71, 72, 73, 74, 75, 76, 77, 78, 79, 80, 81, 82, 83, 84, 85, 86, 87, 88, 89, 90, 91, 92, 93, 94, 95, 96, 97, 98, 99, 100, 101, 102, 103, 104, 105, 106, 107, 108, 109, 110, 111, 112, 113, 114, 115, 116, 117, 118, 119, 120, 121, 122, 123, 124, 125, 126, 127, 128, 129, 130, 131, 132, 133, 134, 135, 136, 137, 138, 139, 140, 141, 142, 143, 144, 145, 146, 147, 148, 149, 150, 151, 152, 153, 154, 155, 156, 157, 158, 159, 160, 161, 162, 163, 164, 165, 166, 167, 168, 169, 170, 171, 172, 173, 174, 175, 176, 177, 178, 179, 180, 181, 182, 183, 184, 185, 186, 187, 188, 189, 190, 191, 192, 193, 194, 195, 196, 197, 198, 199, 200, 201, 202, 203, 204, 205, 206, 207, 208, 209, 210, 211, 212, 213, 214, 215, 216, 217, 218, 219, 220, 221, 222, 223, 224, 225, 226, 227, 228, 229, 230, 231, 232, 233, 234, 235, 236, 237, 238, 239, 240, 241, 242, 243, 244, 245, 246, 247, 248, 249, 250, 251, 252, 253, 254, 255, 256, 257, 258, 259, 260, 261, 262, 263, 264, 265, 266, 267, 268, 269, 270, 271, 272, 273, 274, 275, 276, 277, 278, 279, 280, 281, 282, 283, 284, 285, 286, 287, 288, 289, 290, 291, 292, 293, 294, 295, 296, 297, 298, 299, 300, 301, 302, 303, 304, 305, 306, 307, 308, 309, 310, 311, 312, 313, 314, 315, 316, 317, 318, 319, 320, 321, 322, 323, 324, 325, 326, 327, 328, 329, 330, 331, 332, 333, 334, 335, 336, 337, 338, 339, 340, 341, 342, 343, 344, 345, 346, 347, 348, 349, 350, 351, 352, 353, 354, 355, 356, 357, 358, 359, 360, 361, 362, 363, 364, 365, 366, 367, 368, 369, 370, 371, 372, 373, 374, 375, 376, 377, 378, 379, 380, 381, 382, 383, 384, 385, 386, 387, 388, 389, 390, 391, 392, 393, 394, 395, 396, 397, 398, 399, 400, 401, 402, 403, 404, 405, 406, 407, 408, 409, 410, 411, 412, 413, 414, 415, 416, 417, 418, 419, 420, 421, 422, 423, 424, 425, 426, 427, 428, 429, 430, 431, 432, 433, 434, 435, 436, 437, 438, 439, 440, 441, 442],
      "AcquisitionTime": ["110629.570000", "110631.577500", "110633.585000", "110635.595000", "110637.602500", "110639.610000", "110641.617500", "110643.625000", "110645.635000", "110647.642500", "110649.650000", "110651.657500", "110653.667500", "110655.675000", "110657.682500", "110659.690000", "110701.697500", "110703.707500", "110705.715000", "110707.722500", "110709.730000", "110711.737500", "110713.747500", "110715.755000", "110717.762500", "110719.770000", "110721.780000", "110723.787500", "110725.795000", "110727.802500", "110729.810000", "110731.820000", "110733.827500", "110735.835000", "110737.842500", "110739.850000", "110741.860000", "110743.867500", "110745.875000", "110747.882500", "110749.892500", "110751.900000", "110753.907500", "110755.915000", "110757.922500", "110759.932500", "110801.940000", "110803.947500", "110805.955000", "110807.962500", "110809.972500", "110811.980000", "110813.987500", "110815.995000", "110818.002500", "110820.012500", "110822.020000", "110824.027500", "110826.035000", "110828.045000", "110830.052500", "110832.060000", "110834.067500", "110836.075000", "110838.085000", "110840.092500", "110842.100000", "110844.107500", "110846.115000", "110848.125000", "110850.132500", "110852.140000", "110854.147500", "110856.157500", "110858.165000", "110900.172500", "110902.180000", "110904.187500", "110906.197500", "110908.205000", "110910.212500", "110912.220000", "110914.227500", "110916.237500", "110918.245000", "110920.252500", "110922.260000", "110924.270000", "110926.277500", "110928.285000", "110930.292500", "110932.300000", "110934.310000", "110936.317500", "110938.325000", "110940.332500", "110942.340000", "110944.350000", "110946.357500", "110948.365000", "110950.372500", "110952.380000", "110954.390000", "110956.397500", "110958.405000", "111000.412500", "111002.422500", "111004.430000", "111006.437500", "111008.445000", "111010.452500", "111012.462500", "111014.470000", "111016.477500", "111018.485000", "111020.492500", "111022.502500", "111024.510000", "111026.517500", "111028.525000", "111030.535000", "111032.542500", "111034.550000", "111036.557500", "111038.565000", "111040.575000", "111042.582500", "111044.590000", "111046.597500", "111048.605000", "111050.615000", "111052.622500", "111054.630000", "111056.637500", "111058.647500", "111100.655000", "111102.662500", "111104.670000", "111106.677500", "111108.687500", "111110.695000", "111112.702500", "111114.710000", "111116.717500", "111118.727500", "111120.735000", "111122.742500", "111124.750000", "111126.757500", "111128.767500", "111130.775000", "111132.782500", "111134.790000", "111136.800000", "111138.807500", "111140.815000", "111142.822500", "111144.830000", "111146.840000", "111148.847500", "111150.855000", "111152.862500", "111154.870000", "111156.880000", "111158.887500", "111200.895000", "111202.902500", "111204.912500", "111206.920000", "111208.927500", "111210.935000", "111212.942500", "111214.952500", "111216.960000", "111218.967500", "111220.975000", "111222.982500", "111224.992500", "111227.000000", "111229.007500", "111231.015000", "111233.025000", "111235.032500", "111237.040000", "111239.047500", "111241.055000", "111243.065000", "111245.072500", "111247.080000", "111249.087500", "111251.095000", "111253.105000", "111255.112500", "111257.120000", "111259.127500", "111301.135000", "111303.145000", "111305.152500", "111307.160000", "111309.167500", "111311.177500", "111313.185000", "111315.192500", "111317.200000", "111319.207500", "111321.217500", "111323.225000", "111325.232500", "111327.240000", "111329.247500", "111331.257500", "111333.265000", "111335.272500", "111337.280000", "111339.290000", "111341.297500", "111343.305000", "111345.312500", "111347.320000", "111349.330000", "111351.337500", "111353.345000", "111355.352500", "111357.360000", "111359.370000", "111401.377500", "111403.385000", "111405.392500", "111407.402500", "111409.410000", "111411.417500", "111413.425000", "111415.432500", "111417.442500", "111419.450000", "111421.457500", "111423.465000", "111425.472500", "111427.482500", "111429.490000", "111431.497500", "111433.505000", "111435.512500", "111437.522500", "111439.530000", "111441.537500", "111443.545000", "111445.555000", "111447.562500", "111449.570000", "111451.577500", "111453.585000", "111455.595000", "111457.602500", "111459.610000", "111501.617500", "111503.625000", "111505.635000", "111507.642500", "111509.650000", "111511.657500", "111513.667500", "111515.675000", "111517.682500", "111519.690000", "111521.697500", "111523.707500", "111525.715000", "111527.722500", "111529.730000", "111531.737500", "111533.747500", "111535.755000", "111537.762500", "111539.770000", "111541.780000", "111543.787500", "111545.795000", "111547.802500", "111549.810000", "111551.820000", "111553.827500", "111555.835000", "111557.842500", "111559.850000", "111601.860000", "111603.867500", "111605.875000", "111607.882500", "111609.892500", "111611.900000", "111613.907500", "111615.915000", "111617.922500", "111619.932500", "111621.940000", "111623.947500", "111625.955000", "111627.962500", "111629.972500", "111631.980000", "111633.987500", "111635.995000", "111638.002500", "111640.012500", "111642.020000", "111644.027500", "111646.035000", "111648.045000", "111650.052500", "111652.060000", "111654.067500", "111656.075000", "111658.085000", "111700.092500", "111702.100000", "111704.107500", "111706.115000", "111708.125000", "111710.132500", "111712.140000", "111714.147500", "111716.157500", "111718.165000", "111720.172500", "111722.180000", "111724.187500", "111726.197500", "111728.205000", "111730.212500", "111732.220000", "111734.227500", "111736.237500", "111738.245000", "111740.252500", "111742.260000", "111744.270000", "111746.277500", "111748.285000", "111750.292500", "111752.300000", "111754.310000", "111756.317500", "111758.325000", "111800.332500", "111802.340000", "111804.350000", "111806.357500", "111808.365000", "111810.372500", "111812.380000", "111814.390000", "111816.397500", "111818.405000", "111820.412500", "111822.422500", "111824.430000", "111826.437500", "111828.445000", "111830.452500", "111832.462500", "111834.470000", "111836.477500", "111838.485000", "111840.492500", "111842.502500", "111844.510000", "111846.517500", "111848.525000", "111850.535000", "111852.542500", "111854.550000", "111856.557500", "111858.565000", "111900.575000", "111902.582500", "111904.590000", "111906.597500", "111908.605000", "111910.615000", "111912.622500", "111914.630000", "111916.637500", "111918.647500", "111920.655000", "111922.662500", "111924.670000", "111926.677500", "111928.687500", "111930.695000", "111932.702500", "111934.710000", "111936.717500", "111938.727500", "111940.735000", "111942.742500", "111944.750000", "111946.757500", "111948.767500", "111950.775000", "111952.782500", "111954.790000", "111956.800000", "111958.807500", "112000.815000", "112002.822500", "112004.830000", "112006.840000", "112008.847500", "112010.855000", "112012.862500", "112014.870000", "112016.880000", "112018.887500", "112020.895000", "112022.902500", "112024.912500", "112026.920000", "112028.927500", "112030.935000", "112032.942500", "112034.952500", "112036.960000", "112038.967500", "112040.975000", "112042.982500", "112044.992500", "112047.000000", "112049.007500", "112051.015000", "112053.025000", "112055.032500", "112057.040000", "112059.047500", "112101.055000", "112103.065000", "112105.072500", "112107.080000", "112109.087500", "112111.095000", "112113.105000", "112115.112500"],
      "ContentTime": ["110714.390000", "110714.406000", "110714.406000", "110714.406000", "110714.406000", "110714.406000", "110714.406000", "110714.406000", "110714.421000", "110714.421000", "110714.421000", "110714.421000", "110714.421000", "110714.421000", "110714.421000", "110714.437000", "110714.437000", "110714.437000", "110714.437000", "110714.437000", "110714.437000", "110714.437000", "110754.375000", "110754.390000", "110754.390000", "110754.390000", "110754.390000", "110754.390000", "110754.406000", "110754.406000", "110754.406000", "110754.406000", "110754.421000", "110754.421000", "110754.421000", "110754.421000", "110754.421000", "110754.421000", "110754.421000", "110754.437000", "110754.437000", "110754.437000", "110834.375000", "110834.375000", "110834.375000", "110834.390000", "110834.390000", "110834.390000", "110834.390000", "110834.406000", "110834.406000", "110834.406000", "110834.406000", "110834.406000", "110834.406000", "110834.421000", "110834.421000", "110834.421000", "110834.437000", "110834.437000", "110834.437000", "110834.437000", "110914.375000", "110914.375000", "110914.375000", "110914.390000", "110914.390000", "110914.390000", "110914.421000", "110914.421000", "110914.421000", "110914.437000", "110914.437000", "110914.437000", "110914.437000", "110914.437000", "110914.437000", "110914.437000", "110914.453000", "110914.453000", "110914.453000", "110914.453000", "110954.375000", "110954.375000", "110954.375000", "110954.390000", "110954.390000", "110954.390000", "110954.390000", "110954.390000", "110954.406000", "110954.406000", "110954.406000", "110954.406000", "110954.406000", "110954.406000", "110954.406000", "110954.421000", "110954.421000", "110954.421000", "110954.421000", "110954.421000", "111034.375000", "111034.375000", "111034.375000", "111034.390000", "111034.390000", "111034.390000", "111034.390000", "111034.390000", "111034.390000", "111034.406000", "111034.406000", "111034.406000", "111034.406000", "111034.406000", "111034.421000", "111034.421000", "111034.421000", "111034.421000", "111034.421000", "111034.437000", "111114.375000", "111114.375000", "111114.390000", "111114.390000", "111114.390000", "111114.390000", "111114.390000", "111114.390000", "111114.406000", "111114.406000", "111114.406000", "111114.406000", "111114.421000", "111114.421000", "111114.421000", "111114.421000", "111114.421000", "111114.421000", "111114.421000", "111114.437000", "111154.375000", "111154.375000", "111154.375000", "111154.390000", "111154.390000", "111154.390000", "111154.406000", "111154.406000", "111154.406000", "111154.406000", "111154.406000", "111154.406000", "111154.406000", "111154.421000", "111154.421000", "111154.421000", "111154.421000", "111154.421000", "111154.421000", "111154.421000", "111234.375000", "111234.375000", "111234.375000", "111234.390000", "111234.390000", "111234.390000", "111234.390000", "111234.390000", "111234.406000", "111234.406000", "111234.406000", "111234.406000", "111234.406000", "111234.406000", "111234.406000", "111234.421000", "111234.421000", "111234.421000", "111234.421000", "111234.421000", "111314.375000", "111314.390000", "111314.390000", "111314.390000", "111314.390000", "111314.390000", "111314.406000", "111314.406000", "111314.406000", "111314.406000", "111314.406000", "111314.406000", "111314.406000", "111314.421000", "111314.421000", "111314.421000", "111314.421000", "111314.421000", "111314.421000", "111314.437000", "111354.375000", "111354.375000", "111354.375000", "111354.390000", "111354.390000", "111354.390000", "111354.406000", "111354.406000", "111354.406000", "111354.406000", "111354.406000", "111354.406000", "111354.421000", "111354.421000", "111354.421000", "111354.421000", "111354.421000", "111354.421000", "111354.421000", "111354.437000", "111434.375000", "111434.375000", "111434.375000", "111434.390000", "111434.390000", "111434.390000", "111434.390000", "111434.390000", "111434.390000", "111434.406000", "111434.406000", "111434.406000", "111434.406000", "111434.406000", "111434.406000", "111434.421000", "111434.421000", "111434.421000", "111434.421000", "111434.421000", "111514.375000", "111514.375000", "111514.375000", "111514.390000", "111514.390000", "111514.390000", "111514.390000", "111514.390000", "111514.406000", "111514.406000", "111514.406000", "111514.406000", "111514.406000", "111514.406000", "111514.406000", "111514.421000", "111514.421000", "111514.421000", "111514.437000", "111514.437000", "111554.375000", "111554.375000", "111554.375000", "111554.390000", "111554.390000", "111554.390000", "111554.390000", "111554.390000", "111554.390000", "111554.406000", "111554.406000", "111554.406000", "111554.406000", "111554.406000", "111554.406000", "111554.406000", "111554.421000", "111554.421000", "111554.421000", "111554.421000", "111634.375000", "111634.375000", "111634.375000", "111634.390000", "111634.390000", "111634.390000", "111634.406000", "111634.406000", "111634.406000", "111634.421000", "111634.421000", "111634.421000", "111634.421000", "111634.421000", "111634.421000", "111634.421000", "111634.437000", "111634.437000", "111634.437000", "111634.437000", "111714.375000", "111714.375000", "111714.375000", "111714.390000", "111714.390000", "111714.390000", "111714.390000", "111714.390000", "111714.390000", "111714.406000", "111714.406000", "111714.406000", "111714.406000", "111714.406000", "111714.406000", "111714.406000", "111714.421000", "111714.421000", "111714.421000", "111714.421000", "111754.375000", "111754.375000", "111754.390000", "111754.390000", "111754.390000", "111754.390000", "111754.390000", "111754.390000", "111754.390000", "111754.406000", "111754.406000", "111754.406000", "111754.406000", "111754.406000", "111754.406000", "111754.406000", "111754.421000", "111754.421000", "111754.421000", "111754.421000", "111834.375000", "111834.375000", "111834.375000", "111834.390000", "111834.390000", "111834.390000", "111834.390000", "111834.390000", "111834.390000", "111834.406000", "111834.406000", "111834.406000", "111834.406000", "111834.406000", "111834.406000", "111834.406000", "111834.421000", "111834.421000", "111834.421000", "111834.421000", "111914.375000", "111914.375000", "111914.375000", "111914.390000", "111914.390000", "111914.390000", "111914.390000", "111914.390000", "111914.390000", "111914.406000", "111914.406000", "111914.406000", "111914.406000", "111914.406000", "111914.406000", "111914.406000", "111914.421000", "111914.421000", "111914.421000", "111914.421000", "111954.375000", "111954.375000", "111954.375000", "111954.390000", "111954.390000", "111954.390000", "111954.390000", "111954.390000", "111954.390000", "111954.406000", "111954.406000", "111954.406000", "111954.406000", "111954.406000", "111954.406000", "111954.421000", "111954.421000", "111954.421000", "111954.421000", "111954.421000", "112034.375000", "112034.375000", "112034.375000", "112034.390000", "112034.390000", "112034.390000", "112034.390000", "112034.390000", "112034.406000", "112034.406000", "112034.406000", "112034.406000", "112034.406000", "112034.406000", "112034.421000", "112034.421000", "112034.421000", "112034.421000", "112034.421000", "112034.421000", "112112.890000", "112112.890000", "112112.906000", "112112.906000", "112112.906000", "112112.906000", "112112.921000", "112112.921000", "112112.921000", "112112.921000", "112112.921000", "112112.921000", "112112.921000", "112112.937000", "112112.937000", "112112.937000", "112112.937000", "112112.937000", "112112.953000", "112112.953000"],
      "InstanceCreationTime": ["110714.390000", "110714.406000", "110714.406000", "110714.406000", "110714.406000", "110714.406000", "110714.406000", "110714.406000", "110714.421000", "110714.421000", "110714.421000", "110714.421000", "110714.421000", "110714.421000", "110714.421000", "110714.437000", "110714.437000", "110714.437000", "110714.437000", "110714.437000", "110714.437000", "110714.437000", "110754.375000", "110754.390000", "110754.390000", "110754.390000", "110754.390000", "110754.390000", "110754.406000", "110754.406000", "110754.406000", "110754.406000", "110754.421000", "110754.421000", "110754.421000", "110754.421000", "110754.421000", "110754.421000", "110754.421000", "110754.437000", "110754.437000", "110754.437000", "110834.375000", "110834.375000", "110834.375000", "110834.390000", "110834.390000", "110834.390000", "110834.390000", "110834.406000", "110834.406000", "110834.406000", "110834.406000", "110834.406000", "110834.406000", "110834.421000", "110834.421000", "110834.421000", "110834.437000", "110834.437000", "110834.437000", "110834.437000", "110914.375000", "110914.375000", "110914.375000", "110914.390000", "110914.390000", "110914.390000", "110914.421000", "110914.421000", "110914.421000", "110914.437000", "110914.437000", "110914.437000", "110914.437000", "110914.437000", "110914.437000", "110914.437000", "110914.453000", "110914.453000", "110914.453000", "110914.453000", "110954.375000", "110954.375000", "110954.375000", "110954.390000", "110954.390000", "110954.390000", "110954.390000", "110954.390000", "110954.406000", "110954.406000", "110954.406000", "110954.406000", "110954.406000", "110954.406000", "110954.406000", "110954.421000", "110954.421000", "110954.421000", "110954.421000", "110954.421000", "111034.375000", "111034.375000", "111034.375000", "111034.390000", "111034.390000", "111034.390000", "111034.390000", "111034.390000", "111034.390000", "111034.406000", "111034.406000", "111034.406000", "111034.406000", "111034.406000", "111034.421000", "111034.421000", "111034.421000", "111034.421000", "111034.421000", "111034.437000", "111114.375000", "111114.375000", "111114.390000", "111114.390000", "111114.390000", "111114.390000", "111114.390000", "111114.390000", "111114.406000", "111114.406000", "111114.406000", "111114.406000", "111114.421000", "111114.421000", "111114.421000", "111114.421000", "111114.421000", "111114.421000", "111114.421000", "111114.437000", "111154.375000", "111154.375000", "111154.375000", "111154.390000", "111154.390000", "111154.390000", "111154.406000", "111154.406000", "111154.406000", "111154.406000", "111154.406000", "111154.406000", "111154.406000", "111154.421000", "111154.421000", "111154.421000", "111154.421000", "111154.421000", "111154.421000", "111154.421000", "111234.375000", "111234.375000", "111234.375000", "111234.390000", "111234.390000", "111234.390000", "111234.390000", "111234.390000", "111234.406000", "111234.406000", "111234.406000", "111234.406000", "111234.406000", "111234.406000", "111234.406000", "111234.421000", "111234.421000", "111234.421000", "111234.421000", "111234.421000", "111314.375000", "111314.390000", "111314.390000", "111314.390000", "111314.390000", "111314.390000", "111314.406000", "111314.406000", "111314.406000", "111314.406000", "111314.406000", "111314.406000", "111314.406000", "111314.421000", "111314.421000", "111314.421000", "111314.421000", "111314.421000", "111314.421000", "111314.437000", "111354.375000", "111354.375000", "111354.375000", "111354.390000", "111354.390000", "111354.390000", "111354.406000", "111354.406000", "111354.406000", "111354.406000", "111354.406000", "111354.406000", "111354.421000", "111354.421000", "111354.421000", "111354.421000", "111354.421000", "111354.421000", "111354.421000", "111354.437000", "111434.375000", "111434.375000", "111434.375000", "111434.390000", "111434.390000", "111434.390000", "111434.390000", "111434.390000", "111434.390000", "111434.406000", "111434.406000", "111434.406000", "111434.406000", "111434.406000", "111434.406000", "111434.421000", "111434.421000", "111434.421000", "111434.421000", "111434.421000", "111514.375000", "111514.375000", "111514.375000", "111514.390000", "111514.390000", "111514.390000", "111514.390000", "111514.390000", "111514.406000", "111514.406000", "111514.406000", "111514.406000", "111514.406000", "111514.406000", "111514.406000", "111514.421000", "111514.421000", "111514.421000", "111514.437000", "111514.437000", "111554.375000", "111554.375000", "111554.375000", "111554.390000", "111554.390000", "111554.390000", "111554.390000", "111554.390000", "111554.390000", "111554.406000", "111554.406000", "111554.406000", "111554.406000", "111554.406000", "111554.406000", "111554.406000", "111554.421000", "111554.421000", "111554.421000", "111554.421000", "111634.375000", "111634.375000", "111634.375000", "111634.390000", "111634.390000", "111634.390000", "111634.406000", "111634.406000", "111634.406000", "111634.421000", "111634.421000", "111634.421000", "111634.421000", "111634.421000", "111634.421000", "111634.421000", "111634.437000", "111634.437000", "111634.437000", "111634.437000", "111714.375000", "111714.375000", "111714.375000", "111714.390000", "111714.390000", "111714.390000", "111714.390000", "111714.390000", "111714.390000", "111714.406000", "111714.406000", "111714.406000", "111714.406000", "111714.406000", "111714.406000", "111714.406000", "111714.421000", "111714.421000", "111714.421000", "111714.421000", "111754.375000", "111754.375000", "111754.390000", "111754.390000", "111754.390000", "111754.390000", "111754.390000", "111754.390000", "111754.390000", "111754.406000", "111754.406000", "111754.406000", "111754.406000", "111754.406000", "111754.406000", "111754.406000", "111754.421000", "111754.421000", "111754.421000", "111754.421000", "111834.375000", "111834.375000", "111834.375000", "111834.390000", "111834.390000", "111834.390000", "111834.390000", "111834.390000", "111834.390000", "111834.406000", "111834.406000", "111834.406000", "111834.406000", "111834.406000", "111834.406000", "111834.406000", "111834.421000", "111834.421000", "111834.421000", "111834.421000", "111914.375000", "111914.375000", "111914.375000", "111914.390000", "111914.390000", "111914.390000", "111914.390000", "111914.390000", "111914.390000", "111914.406000", "111914.406000", "111914.406000", "111914.406000", "111914.406000", "111914.406000", "111914.406000", "111914.421000", "111914.421000", "111914.421000", "111914.421000", "111954.375000", "111954.375000", "111954.375000", "111954.390000", "111954.390000", "111954.390000", "111954.390000", "111954.390000", "111954.390000", "111954.406000", "111954.406000", "111954.406000", "111954.406000", "111954.406000", "111954.406000", "111954.421000", "111954.421000", "111954.421000", "111954.421000", "111954.421000", "112034.375000", "112034.375000", "112034.375000", "112034.390000", "112034.390000", "112034.390000", "112034.390000", "112034.390000", "112034.406000", "112034.406000", "112034.406000", "112034.406000", "112034.406000", "112034.406000", "112034.421000", "112034.421000", "112034.421000", "112034.421000", "112034.421000", "112034.421000", "112112.890000", "112112.890000", "112112.906000", "112112.906000", "112112.906000", "112112.906000", "112112.921000", "112112.921000", "112112.921000", "112112.921000", "112112.921000", "112112.921000", "112112.921000", "112112.937000", "112112.937000", "112112.937000", "112112.937000", "112112.937000", "112112.953000", "112112.953000"],
