{
  "AcquisitionMatrixPE": 72,
  "AcquisitionNumber": 1,
  "AcquisitionTime": "10:37:22.865000",
  "BandwidthPerPixelPhaseEncode": 28.935,
  "BaseResolution": 72,
  "CoilString": "C:HEA;HEP",
  "ConversionSoftware": "dcm2niix",
  "ConversionSoftwareVersion": "v1.0.20190410  GCC6.3.0",
  "DerivedVendorReportedEchoSpacing": 0.000480003,
  "DeviceSerialNumber": "35149",
  "DwellTime": 2.9e-06,
  "EchoTime": 0.025,
  "EffectiveEchoSpacing": 0.000480003,
  "FlipAngle": 75,
  "ImageOrientationPatientDICOM": [0.999503, 0.0315092, -0.000167447, -0.0303456, 0.961136, -0.274403],
  "ImageType": [
    "ORIGINAL",
    "PRIMARY",
    "M",
    "ND",
    "MOSAIC"
],
  "ImagingFrequency": 123.255,
  "InPlanePhaseEncodingDirectionDICOM": "COL",
  "InstitutionAddress": "Street_StreetNo_Rehovot_91E162_District_IL_ZIP",
  "InstitutionName": "Weizmann",
  "InstitutionalDepartmentName": "Department",
  "MRAcquisitionType": "2D",
  "MagneticFieldStrength": 3,
  "Manufacturer": "Siemens",
  "ManufacturersModelName": "TrioTim",
  "Modality": "MR",
  "PartialFourier": 1,
  "PatientPosition": "HFS",
  "PercentPhaseFOV": 100,
  "PhaseEncodingDirection": "j-",
  "PhaseEncodingSteps": 72,
  "PhaseResolution": 1,
  "PixelBandwidth": 2395,
  "ProcedureStepDescription": "Weizmann_Sobel",
  "ProtocolName": "exp1_30_to_AC-PC",
  "PulseSequenceDetails": "%SiemensSeq%_ep2d_pace",
  "ReceiveCoilName": "HeadMatrix",
  "ReconMatrixPE": 72,
  "RepetitionTime": 2,
  "SAR": 0.17652,
  "ScanOptions": "FS",
  "ScanningSequence": "EP",
  "SequenceName": "_epfid2d1_72",
  "SequenceVariant": "SK",
  "SeriesDescription": "exp1_30_to_AC-PC",
  "SeriesNumber": 3,
  "ShimSetting": [2352, 9223, -5362, 657, 262, -1015, 621, 65],
  "SliceThickness": 3.7,
  "SliceTiming": [0.9925, 0, 1.0525, 0.0575, 1.11, 0.1175, 1.1675, 0.175, 1.2275, 0.2325, 1.285, 0.2925, 1.345, 0.35, 1.4025, 0.4075, 1.46, 0.4675, 1.52, 0.525, 1.5775, 0.585, 1.635, 0.6425, 1.695, 0.7, 1.7525, 0.76, 1.8125, 0.8175, 1.87, 0.875, 1.9275, 0.935],
  "SoftwareVersions": "syngo_MR_B17",
  "SpacingBetweenSlices": 3.7,
  "StationName": "MRC35149",
  "TaskName": "bodyodor",
  "TotalReadoutTime": 0.0340802,
  "TxRefAmp": 289.994,
  "VendorReportedEchoSpacing": 0.00048,
  "dcmmeta_affine": [
    [-2.9985103607177734, -0.09103687852621078, 0.03139546513557434, 108.31537628173828],
    [-0.09452755004167557, 2.8834080696105957, -1.0148041248321533, -65.7989273071289],
    [-0.0005023403791710734, 0.8232076168060303, 3.5579752922058105, -44.69609832763672],
    [0.0, 0.0, 0.0, 1.0]
],
  "dcmmeta_reorient_transform": [
    [0.0, -1.0, 0.0, 71.0],
    [1.0, 0.0, 0.0, 0.0],
    [0.0, 0.0, 1.0, 0.0],
    [0.0, 0.0, 0.0, 1.0]
],
  "dcmmeta_shape": [72, 72, 34, 450],
  "dcmmeta_slice_dim": 2,
  "dcmmeta_version": 0.6,
  "global": {
    "const": {
      "AcquisitionMatrix": [72, 0, 0, 72],
      "AngioFlag": "N",
      "BitsAllocated": 16,
      "BitsStored": 12,
      "Columns": 432,
      "EchoNumbers": 1,
      "EchoTime": 25.0,
      "EchoTrainLength": 1,
      "FlipAngle": 75.0,
      "HighBit": 11,
      "ImageOrientationPatient": [0.99950344839758, 0.0315091828347, -0.0001674468006, -0.0303456255789, 0.96113598823003, -0.274402542148],
      "ImagePositionPatient": [-625.19698078775, -674.95143420749, 162.01943824214],
      "ImageType": [
        "ORIGINAL",
        "PRIMARY",
        "M",
        "ND",
        "MOSAIC"
],
      "ImagedNucleus": "1H",
      "ImagingFrequency": 123.254548,
      "InPlanePhaseEncodingDirection": "COL",
      "MRAcquisitionType": "2D",
      "MagneticFieldStrength": 3.0,
      "Manufacturer": "SIEMENS",
      "ManufacturerModelName": "TrioTim",
      "Modality": "MR",
      "NumberOfAverages": 1.0,
      "NumberOfPhaseEncodingSteps": 72,
      "PercentPhaseFieldOfView": 100.0,
      "PercentSampling": 100.0,
      "PerformedProcedureStepStartTime": "103131.375000",
      "PhotometricInterpretation": "MONOCHROME2",
      "PixelBandwidth": 2395.0,
      "PixelRepresentation": 0,
      "PixelSpacing": [3.0, 3.0],
      "ProtocolName": "exp1_30_to_AC-PC",
      "RepetitionTime": 2000.0,
      "Rows": 432,
      "SAR": 0.17652005351665,
      "SamplesPerPixel": 1,
      "ScanOptions": "FS",
      "ScanningSequence": "EP",
      "SequenceName": "*epfid2d1_72",
      "SequenceVariant": "SK",
      "SeriesDescription": "exp1_30_to_AC-PC",
      "SeriesNumber": 3,
      "SeriesTime": "103815.781000",
      "SliceLocation": -24.014588099042,
      "SliceThickness": 3.7000000476837,
      "SmallestImagePixelValue": 0,
      "SoftwareVersions": "syngo MR B17",
      "SpacingBetweenSlices": 3.7000001107847,
      "SpecificCharacterSet": "ISO_IR 100",
      "StudyID": "1",
      "StudyTime": "103131.312000",
      "TransmitCoilName": "Body",
      "VariableFlipAngleFlag": "N",
      "WindowCenterWidthExplanation": "Algo1",
      "dBdt": 0.0},
    "slices": {}
  },
  "time": {
    "samples": {
      "AcquisitionNumber": [1, 2, 3, 4, 5, 6, 7, 8, 9, 10, 11, 12, 13, 14, 15, 16, 17, 18, 19, 20, 21, 22, 23, 24, 25, 26, 27, 28, 29, 30, 31, 32, 33, 34, 35, 36, 37, 38, 39, 40, 41, 42, 43, 44, 45, 46, 47, 48, 49, 50, 51, 52, 53, 54, 55, 56, 57, 58, 59, 60, 61, 62, 63, 64, 65, 66, 67, 68, 69, 70, 71, 72, 73, 74, 75, 76, 77, 78, 79, 80, 81, 82, 83, 84, 85, 86, 87, 88, 89, 90, 91, 92, 93, 94, 95, 96, 97, 98, 99, 100, 101, 102, 103, 104, 105, 106, 107, 108, 109, 110, 111, 112, 113, 114, 115, 116, 117, 118, 119, 120, 121, 122, 123, 124, 125, 126, 127, 128, 129, 130, 131, 132, 133, 134, 135, 136, 137, 138, 139, 140, 141, 142, 143, 144, 145, 146, 147, 148, 149, 150, 151, 152, 153, 154, 155, 156, 157, 158, 159, 160, 161, 162, 163, 164, 165, 166, 167, 168, 169, 170, 171, 172, 173, 174, 175, 176, 177, 178, 179, 180, 181, 182, 183, 184, 185, 186, 187, 188, 189, 190, 191, 192, 193, 194, 195, 196, 197, 198, 199, 200, 201, 202, 203, 204, 205, 206, 207, 208, 209, 210, 211, 212, 213, 214, 215, 216, 217, 218, 219, 220, 221, 222, 223, 224, 225, 226, 227, 228, 229, 230, 231, 232, 233, 234, 235, 236, 237, 238, 239, 240, 241, 242, 243, 244, 245, 246, 247, 248, 249, 250, 251, 252, 253, 254, 255, 256, 257, 258, 259, 260, 261, 262, 263, 264, 265, 266, 267, 268, 269, 270, 271, 272, 273, 274, 275, 276, 277, 278, 279, 280, 281, 282, 283, 284, 285, 286, 287, 288, 289, 290, 291, 292, 293, 294, 295, 296, 297, 298, 299, 300, 301, 302, 303, 304, 305, 306, 307, 308, 309, 310, 311, 312, 313, 314, 315, 316, 317, 318, 319, 320, 321, 322, 323, 324, 325, 326, 327, 328, 329, 330, 331, 332, 333, 334, 335, 336, 337, 338, 339, 340, 341, 342, 343, 344, 345, 346, 347, 348, 349, 350, 351, 352, 353, 354, 355, 356, 357, 358, 359, 360, 361, 362, 363, 364, 365, 366, 367, 368, 369, 370, 371, 372, 373, 374, 375, 376, 377, 378, 379, 380, 381, 382, 383, 384, 385, 386, 387, 388, 389, 390, 391, 392, 393, 394, 395, 396, 397, 398, 399, 400, 401, 402, 403, 404, 405, 406, 407, 408, 409, 410, 411, 412, 413, 414, 415, 416, 417, 418, 419, 420, 421, 422, 423, 424, 425, 426, 427, 428, 429, 430, 431, 432, 433, 434, 435, 436, 437, 438, 439, 440, 441, 442, 443, 444, 445, 446, 447, 448, 449, 450],
      "AcquisitionTime": ["103722.865000", "103724.872500", "103726.882500", "103728.890000", "103730.897500", "103732.905000", "103734.915000", "103736.922500", "103738.930000", "103740.937500", "103742.945000", "103744.955000", "103746.962500", "103748.970000", "103750.977500", "103752.985000", "103754.995000", "103757.002500", "103759.010000", "103801.017500", "103803.027500", "103805.035000", "103807.042500", "103809.050000", "103811.057500", "103813.067500", "103815.075000", "103817.082500", "103819.090000", "103821.097500", "103823.107500", "103825.115000", "103827.122500", "103829.130000", "103831.137500", "103833.147500", "103835.155000", "103837.162500", "103839.170000", "103841.180000", "103843.187500", "103845.195000", "103847.202500", "103849.210000", "103851.220000", "103853.227500", "103855.235000", "103857.242500", "103859.250000", "103901.260000", "103903.267500", "103905.275000", "103907.282500", "103909.292500", "103911.300000", "103913.307500", "103915.315000", "103917.322500", "103919.332500", "103921.340000", "103923.347500", "103925.355000", "103927.362500", "103929.372500", "103931.380000", "103933.387500", "103935.395000", "103937.405000", "103939.412500", "103941.420000", "103943.427500", "103945.435000", "103947.445000", "103949.452500", "103951.460000", "103953.467500", "103955.475000", "103957.485000", "103959.492500", "104001.500000", "104003.507500", "104005.515000", "104007.525000", "104009.532500", "104011.540000", "104013.547500", "104015.557500", "104017.565000", "104019.572500", "104021.580000", "104023.587500", "104025.597500", "104027.605000", "104029.612500", "104031.620000", "104033.627500", "104035.637500", "104037.645000", "104039.652500", "104041.660000", "104043.670000", "104045.677500", "104047.685000", "104049.692500", "104051.700000", "104053.710000", "104055.717500", "104057.725000", "104059.732500", "104101.740000", "104103.750000", "104105.757500", "104107.765000", "104109.772500", "104111.782500", "104113.790000", "104115.797500", "104117.805000", "104119.812500", "104121.822500", "104123.830000", "104125.837500", "104127.845000", "104129.852500", "104131.862500", "104133.870000", "104135.877500", "104137.885000", "104139.892500", "104141.902500", "104143.910000", "104145.917500", "104147.925000", "104149.935000", "104151.942500", "104153.950000", "104155.957500", "104157.965000", "104159.975000", "104201.982500", "104203.990000", "104205.997500", "104208.005000", "104210.015000", "104212.022500", "104214.030000", "104216.037500", "104218.047500", "104220.055000", "104222.062500", "104224.070000", "104226.077500", "104228.087500", "104230.095000", "104232.102500", "104234.110000", "104236.117500", "104238.127500", "104240.135000", "104242.142500", "104244.150000", "104246.160000", "104248.167500", "104250.175000", "104252.182500", "104254.190000", "104256.200000", "104258.207500", "104300.215000", "104302.222500", "104304.230000", "104306.240000", "104308.247500", "104310.255000", "104312.262500", "104314.270000", "104316.280000", "104318.287500", "104320.295000", "104322.302500", "104324.312500", "104326.320000", "104328.327500", "104330.335000", "104332.342500", "104334.352500", "104336.360000", "104338.367500", "104340.375000", "104342.382500", "104344.392500", "104346.400000", "104348.407500", "104350.415000", "104352.425000", "104354.432500", "104356.440000", "104358.447500", "104400.455000", "104402.465000", "104404.472500", "104406.480000", "104408.487500", "104410.495000", "104412.505000", "104414.512500", "104416.520000", "104418.527500", "104420.537500", "104422.545000", "104424.552500", "104426.560000", "104428.567500", "104430.577500", "104432.585000", "104434.592500", "104436.600000", "104438.607500", "104440.617500", "104442.625000", "104444.632500", "104446.640000", "104448.650000", "104450.657500", "104452.665000", "104454.672500", "104456.680000", "104458.690000", "104500.697500", "104502.705000", "104504.712500", "104506.720000", "104508.730000", "104510.737500", "104512.745000", "104514.752500", "104516.760000", "104518.770000", "104520.777500", "104522.785000", "104524.792500", "104526.802500", "104528.810000", "104530.817500", "104532.825000", "104534.832500", "104536.842500", "104538.850000", "104540.857500", "104542.865000", "104544.872500", "104546.882500", "104548.890000", "104550.897500", "104552.905000", "104554.915000", "104556.922500", "104558.930000", "104600.937500", "104602.945000", "104604.955000", "104606.962500", "104608.970000", "104610.977500", "104612.985000", "104614.995000", "104617.002500", "104619.010000", "104621.017500", "104623.027500", "104625.035000", "104627.042500", "104629.050000", "104631.057500", "104633.067500", "104635.075000", "104637.082500", "104639.090000", "104641.097500", "104643.107500", "104645.115000", "104647.122500", "104649.130000", "104651.137500", "104653.147500", "104655.155000", "104657.162500", "104659.170000", "104701.180000", "104703.187500", "104705.195000", "104707.202500", "104709.210000", "104711.220000", "104713.227500", "104715.235000", "104717.242500", "104719.250000", "104721.260000", "104723.267500", "104725.275000", "104727.282500", "104729.292500", "104731.300000", "104733.307500", "104735.315000", "104737.322500", "104739.332500", "104741.340000", "104743.347500", "104745.355000", "104747.362500", "104749.372500", "104751.380000", "104753.387500", "104755.395000", "104757.405000", "104759.412500", "104801.420000", "104803.427500", "104805.435000", "104807.445000", "104809.452500", "104811.460000", "104813.467500", "104815.475000", "104817.485000", "104819.492500", "104821.500000", "104823.507500", "104825.515000", "104827.525000", "104829.532500", "104831.540000", "104833.547500", "104835.557500", "104837.565000", "104839.572500", "104841.580000", "104843.587500", "104845.597500", "104847.605000", "104849.612500", "104851.620000", "104853.627500", "104855.637500", "104857.645000", "104859.652500", "104901.660000", "104903.670000", "104905.677500", "104907.685000", "104909.692500", "104911.700000", "104913.710000", "104915.717500", "104917.725000", "104919.732500", "104921.740000", "104923.750000", "104925.757500", "104927.765000", "104929.772500", "104931.782500", "104933.790000", "104935.797500", "104937.805000", "104939.812500", "104941.822500", "104943.830000", "104945.837500", "104947.845000", "104949.852500", "104951.862500", "104953.870000", "104955.877500", "104957.885000", "104959.892500", "105001.902500", "105003.910000", "105005.917500", "105007.925000", "105009.935000", "105011.942500", "105013.950000", "105015.957500", "105017.965000", "105019.975000", "105021.982500", "105023.990000", "105025.997500", "105028.005000", "105030.015000", "105032.022500", "105034.030000", "105036.037500", "105038.047500", "105040.055000", "105042.062500", "105044.070000", "105046.077500", "105048.087500", "105050.095000", "105052.102500", "105054.110000", "105056.117500", "105058.127500", "105100.135000", "105102.142500", "105104.150000", "105106.160000", "105108.167500", "105110.175000", "105112.182500", "105114.190000", "105116.200000", "105118.207500", "105120.215000", "105122.222500", "105124.230000", "105126.240000", "105128.247500", "105130.255000", "105132.262500", "105134.270000", "105136.280000", "105138.287500", "105140.295000", "105142.302500", "105144.312500", "105146.320000", "105148.327500", "105150.335000", "105152.342500", "105154.352500", "105156.360000", "105158.367500", "105200.375000", "105202.382500", "105204.392500", "105206.400000", "105208.407500", "105210.415000", "105212.425000", "105214.432500", "105216.440000", "105218.447500", "105220.455000", "105222.465000", "105224.472500"],
      "ContentTime": ["103815.796000", "103815.796000", "103815.812000", "103815.812000", "103815.812000", "103815.812000", "103815.812000", "103815.812000", "103815.812000", "103815.828000", "103815.828000", "103815.828000", "103815.828000", "103815.828000", "103815.828000", "103815.828000", "103815.843000", "103815.843000", "103815.843000", "103815.859000", "103815.859000", "103815.859000", "103815.859000", "103815.859000", "103815.859000", "103815.859000", "103855.781000", "103855.781000", "103855.781000", "103855.796000", "103855.796000", "103855.796000", "103855.796000", "103855.796000", "103855.796000", "103855.812000", "103855.812000", "103855.812000", "103855.812000", "103855.812000", "103855.812000", "103855.812000", "103855.828000", "103855.828000", "103855.828000", "103855.828000", "103935.781000", "103935.781000", "103935.781000", "103935.781000", "103935.796000", "103935.796000", "103935.796000", "103935.796000", "103935.812000", "103935.812000", "103935.812000", "103935.812000", "103935.812000", "103935.812000", "103935.812000", "103935.828000", "103935.828000", "103935.828000", "103935.828000", "103935.828000", "104015.781000", "104015.781000", "104015.781000", "104015.781000", "104015.781000", "104015.781000", "104015.796000", "104015.796000", "104015.796000", "104015.796000", "104015.796000", "104015.796000", "104015.812000", "104015.812000", "104015.812000", "104015.812000", "104015.812000", "104015.812000", "104015.812000", "104015.828000", "104035.781000", "104035.781000", "104035.781000", "104035.781000", "104035.781000", "104035.781000", "104035.796000", "104035.796000", "104035.796000", "104035.812000", "104115.781000", "104115.781000", "104115.796000", "104115.796000", "104115.796000", "104115.796000", "104115.796000", "104115.796000", "104115.812000", "104115.812000", "104115.812000", "104115.812000", "104115.812000", "104115.828000", "104115.828000", "104115.828000", "104115.843000", "104115.843000", "104115.843000", "104115.843000", "104155.781000", "104155.781000", "104155.781000", "104155.781000", "104155.781000", "104155.781000", "104155.796000", "104155.796000", "104155.796000", "104155.796000", "104155.796000", "104155.812000", "104155.812000", "104155.812000", "104155.812000", "104155.812000", "104155.828000", "104155.828000", "104155.828000", "104155.828000", "104235.781000", "104235.781000", "104235.781000", "104235.781000", "104235.781000", "104235.781000", "104235.796000", "104235.796000", "104235.796000", "104235.796000", "104235.796000", "104235.796000", "104235.812000", "104235.812000", "104235.812000", "104235.812000", "104235.812000", "104235.812000", "104235.812000", "104235.812000", "104315.781000", "104315.781000", "104315.781000", "104315.781000", "104315.781000", "104315.781000", "104315.796000", "104315.796000", "104315.796000", "104315.796000", "104315.796000", "104315.796000", "104315.812000", "104315.812000", "104315.812000", "104315.812000", "104315.812000", "104315.812000", "104315.812000", "104315.828000", "104355.781000", "104355.781000", "104355.781000", "104355.781000", "104355.781000", "104355.781000", "104355.796000", "104355.796000", "104355.796000", "104355.796000", "104355.812000", "104355.812000", "104355.828000", "104355.828000", "104355.828000", "104355.828000", "104355.828000", "104355.828000", "104355.843000", "104355.843000", "104435.781000", "104435.781000", "104435.781000", "104435.781000", "104435.781000", "104435.781000", "104435.796000", "104435.796000", "104435.796000", "104435.796000", "104435.796000", "104435.796000", "104435.812000", "104435.812000", "104435.812000", "104435.812000", "104435.828000", "104435.828000", "104435.828000", "104435.828000", "104515.781000", "104515.781000", "104515.781000", "104515.796000", "104515.796000", "104515.796000", "104515.796000", "104515.796000", "104515.796000", "104515.812000", "104515.812000", "104515.812000", "104515.812000", "104515.812000", "104515.812000", "104515.812000", "104515.828000", "104515.828000", "104515.828000", "104515.828000", "104555.781000", "104555.781000", "104555.781000", "104555.781000", "104555.781000", "104555.796000", "104555.796000", "104555.796000", "104555.796000", "104555.796000", "104555.796000", "104555.812000", "104555.812000", "104555.812000", "104555.812000", "104555.812000", "104555.812000", "104555.828000", "104555.828000", "104555.828000", "104635.781000", "104635.781000", "104635.781000", "104635.796000", "104635.796000", "104635.796000", "104635.796000", "104635.796000", "104635.796000", "104635.812000", "104635.812000", "104635.812000", "104635.812000", "104635.812000", "104635.812000", "104635.812000", "104635.828000", "104635.828000", "104635.828000", "104635.843000", "104715.781000", "104715.781000", "104715.781000", "104715.781000", "104715.781000", "104715.796000", "104715.796000", "104715.796000", "104715.796000", "104715.796000", "104715.812000", "104715.812000", "104715.812000", "104715.812000", "104715.812000", "104715.812000", "104715.828000", "104715.828000", "104715.828000", "104715.828000", "104755.781000", "104755.781000", "104755.781000", "104755.781000", "104755.781000", "104755.796000", "104755.796000", "104755.796000", "104755.796000", "104755.796000", "104755.796000", "104755.796000", "104755.812000", "104755.812000", "104755.812000", "104755.812000", "104755.812000", "104755.812000", "104755.812000", "104755.828000", "104835.781000", "104835.781000", "104835.781000", "104835.796000", "104835.796000", "104835.796000", "104835.796000", "104835.796000", "104835.796000", "104835.796000", "104835.812000", "104835.812000", "104835.812000", "104835.828000", "104835.828000", "104835.828000", "104835.828000", "104835.828000", "104835.843000", "104835.843000", "104915.781000", "104915.781000", "104915.781000", "104915.781000", "104915.781000", "104915.796000", "104915.796000", "104915.796000", "104915.796000", "104915.796000", "104915.796000", "104915.812000", "104915.812000", "104915.812000", "104915.812000", "104915.812000", "104915.812000", "104915.812000", "104915.828000", "104915.828000", "104955.781000", "104955.781000", "104955.781000", "104955.781000", "104955.781000", "104955.796000", "104955.796000", "104955.796000", "104955.796000", "104955.812000", "104955.812000", "104955.812000", "104955.812000", "104955.812000", "104955.812000", "104955.828000", "104955.828000", "104955.828000", "104955.828000", "104955.828000", "105035.781000", "105035.781000", "105035.796000", "105035.796000", "105035.796000", "105035.796000", "105035.796000", "105035.796000", "105035.796000", "105035.812000", "105035.812000", "105035.812000", "105035.812000", "105035.812000", "105035.812000", "105035.812000", "105035.828000", "105035.828000", "105035.828000", "105035.828000", "105115.781000", "105115.781000", "105115.781000", "105115.796000", "105115.796000", "105115.796000", "105115.796000", "105115.796000", "105115.796000", "105115.796000", "105115.812000", "105115.812000", "105115.812000", "105115.812000", "105115.812000", "105115.812000", "105115.812000", "105115.828000", "105115.828000", "105115.828000", "105155.781000", "105155.781000", "105155.781000", "105155.796000", "105155.796000", "105155.796000", "105155.796000", "105155.796000", "105155.796000", "105155.796000", "105155.812000", "105155.812000", "105155.812000", "105155.812000", "105155.812000", "105155.812000", "105155.812000", "105155.828000", "105155.828000", "105155.843000", "105221.812000", "105221.812000", "105221.812000", "105221.812000", "105221.828000", "105221.828000", "105221.828000", "105221.828000", "105221.843000", "105221.843000", "105221.843000", "105221.843000", "105221.843000", "105221.859000"],
