{
  "AcquisitionMatrixPE": 72,
  "AcquisitionNumber": 1,
  "AcquisitionTime": "11:55:26.555000",
  "BandwidthPerPixelPhaseEncode": 28.935,
  "BaseResolution": 72,
  "CoilString": "C:HEA;HEP",
  "ConversionSoftware": "dcm2niix",
  "ConversionSoftwareVersion": "v1.0.20190410  GCC6.3.0",
  "DerivedVendorReportedEchoSpacing": 0.000480003,
  "DeviceSerialNumber": "35149",
  "DwellTime": 2.9e-06,
  "EchoTime": 0.025,
  "EffectiveEchoSpacing": 0.000480003,
  "FlipAngle": 75,
  "ImageOrientationPatientDICOM": [0.993366, 0.108661, 0.037639, -0.0809901, 0.893442, -0.441816],
  "ImageType": [
    "ORIGINAL",
    "PRIMARY",
    "M",
    "ND",
    "MOSAIC"
],
  "ImagingFrequency": 123.255,
  "InPlanePhaseEncodingDirectionDICOM": "COL",
  "InstitutionAddress": "Street_StreetNo_Rehovot_91E162_District_IL_ZIP",
  "InstitutionName": "Weizmann",
  "InstitutionalDepartmentName": "Department",
  "MRAcquisitionType": "2D",
  "MagneticFieldStrength": 3,
  "Manufacturer": "Siemens",
  "ManufacturersModelName": "TrioTim",
  "Modality": "MR",
  "PartialFourier": 1,
  "PatientPosition": "HFS",
  "PercentPhaseFOV": 100,
  "PhaseEncodingDirection": "j-",
  "PhaseEncodingSteps": 72,
  "PhaseResolution": 1,
  "PixelBandwidth": 2395,
  "ProcedureStepDescription": "Weizmann_Sobel",
  "ProtocolName": "exp1_30_to_AC-PC",
  "PulseSequenceDetails": "%SiemensSeq%_ep2d_pace",
  "ReceiveCoilName": "HeadMatrix",
  "ReconMatrixPE": 72,
  "RepetitionTime": 2,
  "SAR": 0.144104,
  "ScanOptions": "FS",
  "ScanningSequence": "EP",
  "SequenceName": "_epfid2d1_72",
  "SequenceVariant": "SK",
  "SeriesDescription": "exp1_30_to_AC-PC",
  "SeriesNumber": 5,
  "ShimSetting": [2431, 9397, -5705, 116, 296, -195, -511, 30],
  "SliceThickness": 3.7,
  "SliceTiming": [0.9925, 0, 1.0525, 0.0575, 1.11, 0.1175, 1.17, 0.175, 1.2275, 0.235, 1.285, 0.2925, 1.345, 0.35, 1.4025, 0.41, 1.4625, 0.4675, 1.52, 0.525, 1.5775, 0.585, 1.6375, 0.6425, 1.695, 0.7025, 1.7525, 0.76, 1.8125, 0.8175, 1.87, 0.8775, 1.93, 0.935],
  "SoftwareVersions": "syngo_MR_B17",
  "SpacingBetweenSlices": 3.7,
  "StationName": "MRC35149",
  "TaskName": "blank",
  "TotalReadoutTime": 0.0340802,
  "TxRefAmp": 290.004,
  "VendorReportedEchoSpacing": 0.00048,
  "dcmmeta_affine": [
    [-2.980098009109497, -0.2429703176021576, 0.3020549714565277, 114.44356536865234],
    [-0.3259830176830292, 2.6803271770477295, -1.6125954389572144, -51.07084655761719],
    [0.11291711032390594, 1.325447916984558, 3.316368341445923, -59.945213317871094],
    [0.0, 0.0, 0.0, 1.0]
],
  "dcmmeta_reorient_transform": [
    [0.0, -1.0, 0.0, 71.0],
    [1.0, 0.0, 0.0, 0.0],
    [0.0, 0.0, 1.0, 0.0],
    [0.0, 0.0, 0.0, 1.0]
],
  "dcmmeta_shape": [72, 72, 34, 452],
  "dcmmeta_slice_dim": 2,
  "dcmmeta_version": 0.6,
  "global": {
    "const": {
      "AcquisitionMatrix": [72, 0, 0, 72],
      "AngioFlag": "N",
      "BitsAllocated": 16,
      "BitsStored": 12,
      "Columns": 432,
      "EchoNumbers": 1,
      "EchoTime": 25.0,
      "EchoTrainLength": 1,
      "FlipAngle": 75.0,
      "HighBit": 11,
      "ImageOrientationPatient": [0.99336603908918, 0.10866101085758, 0.03763903696529, -0.0809901065133, 0.89344235451571, -0.4418159818345],
      "ImagePositionPatient": [-589.87567716417, -680.36819354571, 252.41714115599],
      "ImageType": [
        "ORIGINAL",
        "PRIMARY",
        "M",
        "ND",
        "MOSAIC"
],
      "ImagedNucleus": "1H",
      "ImagingFrequency": 123.255262,
      "InPlanePhaseEncodingDirection": "COL",
      "MRAcquisitionType": "2D",
      "MagneticFieldStrength": 3.0,
      "Manufacturer": "SIEMENS",
      "ManufacturerModelName": "TrioTim",
      "Modality": "MR",
      "NumberOfAverages": 1.0,
      "NumberOfPhaseEncodingSteps": 72,
      "PercentPhaseFieldOfView": 100.0,
      "PercentSampling": 100.0,
      "PerformedProcedureStepStartTime": "112933.328000",
      "PhotometricInterpretation": "MONOCHROME2",
      "PixelBandwidth": 2395.0,
      "PixelRepresentation": 0,
      "PixelSpacing": [3.0, 3.0],
      "ProtocolName": "exp1_30_to_AC-PC",
      "RepetitionTime": 2000.0,
      "Rows": 432,
      "SAR": 0.14410394412429,
      "SamplesPerPixel": 1,
      "ScanOptions": "FS",
      "ScanningSequence": "EP",
      "SequenceName": "*epfid2d1_72",
      "SequenceVariant": "SK",
      "SeriesDescription": "exp1_30_to_AC-PC",
      "SeriesNumber": 5,
      "SeriesTime": "115532.375000",
      "SliceLocation": -22.128525613751,
      "SliceThickness": 3.7000000476837,
      "SmallestImagePixelValue": 0,
      "SoftwareVersions": "syngo MR B17",
      "SpacingBetweenSlices": 3.6999999091434,
      "SpecificCharacterSet": "ISO_IR 100",
      "StudyID": "1",
      "StudyTime": "112933.296000",
      "TransmitCoilName": "Body",
      "VariableFlipAngleFlag": "N",
      "WindowCenterWidthExplanation": "Algo1",
      "dBdt": 0.0},
    "slices": {}
  },
  "time": {
    "samples": {
      "AcquisitionNumber": [1, 2, 3, 4, 5, 6, 7, 8, 9, 10, 11, 12, 13, 14, 15, 16, 17, 18, 19, 20, 21, 22, 23, 24, 25, 26, 27, 28, 29, 30, 31, 32, 33, 34, 35, 36, 37, 38, 39, 40, 41, 42, 43, 44, 45, 46, 47, 48, 49, 50, 51, 52, 53, 54, 55, 56, 57, 58, 59, 60, 61, 62, 63, 64, 65, 66, 67, 68, 69, 70, 71, 72, 73, 74, 75, 76, 77, 78, 79, 80, 81, 82, 83, 84, 85, 86, 87, 88, 89, 90, 91, 92, 93, 94, 95, 96, 97, 98, 99, 100, 101, 102, 103, 104, 105, 106, 107, 108, 109, 110, 111, 112, 113, 114, 115, 116, 117, 118, 119, 120, 121, 122, 123, 124, 125, 126, 127, 128, 129, 130, 131, 132, 133, 134, 135, 136, 137, 138, 139, 140, 141, 142, 143, 144, 145, 146, 147, 148, 149, 150, 151, 152, 153, 154, 155, 156, 157, 158, 159, 160, 161, 162, 163, 164, 165, 166, 167, 168, 169, 170, 171, 172, 173, 174, 175, 176, 177, 178, 179, 180, 181, 182, 183, 184, 185, 186, 187, 188, 189, 190, 191, 192, 193, 194, 195, 196, 197, 198, 199, 200, 201, 202, 203, 204, 205, 206, 207, 208, 209, 210, 211, 212, 213, 214, 215, 216, 217, 218, 219, 220, 221, 222, 223, 224, 225, 226, 227, 228, 229, 230, 231, 232, 233, 234, 235, 236, 237, 238, 239, 240, 241, 242, 243, 244, 245, 246, 247, 248, 249, 250, 251, 252, 253, 254, 255, 256, 257, 258, 259, 260, 261, 262, 263, 264, 265, 266, 267, 268, 269, 270, 271, 272, 273, 274, 275, 276, 277, 278, 279, 280, 281, 282, 283, 284, 285, 286, 287, 288, 289, 290, 291, 292, 293, 294, 295, 296, 297, 298, 299, 300, 301, 302, 303, 304, 305, 306, 307, 308, 309, 310, 311, 312, 313, 314, 315, 316, 317, 318, 319, 320, 321, 322, 323, 324, 325, 326, 327, 328, 329, 330, 331, 332, 333, 334, 335, 336, 337, 338, 339, 340, 341, 342, 343, 344, 345, 346, 347, 348, 349, 350, 351, 352, 353, 354, 355, 356, 357, 358, 359, 360, 361, 362, 363, 364, 365, 366, 367, 368, 369, 370, 371, 372, 373, 374, 375, 376, 377, 378, 379, 380, 381, 382, 383, 384, 385, 386, 387, 388, 389, 390, 391, 392, 393, 394, 395, 396, 397, 398, 399, 400, 401, 402, 403, 404, 405, 406, 407, 408, 409, 410, 411, 412, 413, 414, 415, 416, 417, 418, 419, 420, 421, 422, 423, 424, 425, 426, 427, 428, 429, 430, 431, 432, 433, 434, 435, 436, 437, 438, 439, 440, 441, 442, 443, 444, 445, 446, 447, 448, 449, 450, 451, 452],
      "AcquisitionTime": ["115526.555000", "115528.565000", "115530.572500", "115532.580000", "115534.587500", "115536.597500", "115538.605000", "115540.612500", "115542.620000", "115544.627500", "115546.637500", "115548.645000", "115550.652500", "115552.660000", "115554.667500", "115556.677500", "115558.685000", "115600.692500", "115602.700000", "115604.710000", "115606.717500", "115608.725000", "115610.732500", "115612.740000", "115614.750000", "115616.757500", "115618.765000", "115620.772500", "115622.780000", "115624.790000", "115626.797500", "115628.805000", "115630.812500", "115632.822500", "115634.830000", "115636.837500", "115638.845000", "115640.852500", "115642.862500", "115644.870000", "115646.877500", "115648.885000", "115650.892500", "115652.902500", "115654.910000", "115656.917500", "115658.925000", "115700.932500", "115702.942500", "115704.950000", "115706.957500", "115708.965000", "115710.975000", "115712.982500", "115714.990000", "115716.997500", "115719.005000", "115721.015000", "115723.022500", "115725.030000", "115727.037500", "115729.045000", "115731.055000", "115733.062500", "115735.070000", "115737.077500", "115739.087500", "115741.095000", "115743.102500", "115745.110000", "115747.117500", "115749.127500", "115751.135000", "115753.142500", "115755.150000", "115757.157500", "115759.167500", "115801.175000", "115803.182500", "115805.190000", "115807.200000", "115809.207500", "115811.215000", "115813.222500", "115815.230000", "115817.240000", "115819.247500", "115821.255000", "115823.262500", "115825.270000", "115827.280000", "115829.287500", "115831.295000", "115833.302500", "115835.310000", "115837.320000", "115839.327500", "115841.335000", "115843.342500", "115845.352500", "115847.360000", "115849.367500", "115851.375000", "115853.382500", "115855.392500", "115857.400000", "115859.407500", "115901.415000", "115903.422500", "115905.432500", "115907.440000", "115909.447500", "115911.455000", "115913.465000", "115915.472500", "115917.480000", "115919.487500", "115921.495000", "115923.505000", "115925.512500", "115927.520000", "115929.527500", "115931.535000", "115933.545000", "115935.552500", "115937.560000", "115939.567500", "115941.577500", "115943.585000", "115945.592500", "115947.600000", "115949.607500", "115951.617500", "115953.625000", "115955.632500", "115957.640000", "115959.647500", "120001.657500", "120003.665000", "120005.672500", "120007.680000", "120009.690000", "120011.697500", "120013.705000", "120015.712500", "120017.720000", "120019.730000", "120021.737500", "120023.745000", "120025.752500", "120027.760000", "120029.770000", "120031.777500", "120033.785000", "120035.792500", "120037.800000", "120039.810000", "120041.817500", "120043.825000", "120045.832500", "120047.842500", "120049.850000", "120051.857500", "120053.865000", "120055.872500", "120057.882500", "120059.890000", "120101.897500", "120103.905000", "120105.912500", "120107.922500", "120109.930000", "120111.937500", "120113.945000", "120115.955000", "120117.962500", "120119.970000", "120121.977500", "120123.985000", "120125.995000", "120128.002500", "120130.010000", "120132.017500", "120134.025000", "120136.035000", "120138.042500", "120140.050000", "120142.057500", "120144.067500", "120146.075000", "120148.082500", "120150.090000", "120152.097500", "120154.107500", "120156.115000", "120158.122500", "120200.130000", "120202.137500", "120204.147500", "120206.155000", "120208.162500", "120210.170000", "120212.177500", "120214.187500", "120216.195000", "120218.202500", "120220.210000", "120222.220000", "120224.227500", "120226.235000", "120228.242500", "120230.250000", "120232.260000", "120234.267500", "120236.275000", "120238.282500", "120240.290000", "120242.300000", "120244.307500", "120246.315000", "120248.322500", "120250.332500", "120252.340000", "120254.347500", "120256.355000", "120258.362500", "120300.372500", "120302.380000", "120304.387500", "120306.395000", "120308.402500", "120310.412500", "120312.420000", "120314.427500", "120316.435000", "120318.445000", "120320.452500", "120322.460000", "120324.467500", "120326.475000", "120328.485000", "120330.492500", "120332.500000", "120334.507500", "120336.515000", "120338.525000", "120340.532500", "120342.540000", "120344.547500", "120346.555000", "120348.565000", "120350.572500", "120352.580000", "120354.587500", "120356.597500", "120358.605000", "120400.612500", "120402.620000", "120404.627500", "120406.637500", "120408.645000", "120410.652500", "120412.660000", "120414.667500", "120416.677500", "120418.685000", "120420.692500", "120422.700000", "120424.710000", "120426.717500", "120428.725000", "120430.732500", "120432.740000", "120434.750000", "120436.757500", "120438.765000", "120440.772500", "120442.780000", "120444.790000", "120446.797500", "120448.805000", "120450.812500", "120452.822500", "120454.830000", "120456.837500", "120458.845000", "120500.852500", "120502.862500", "120504.870000", "120506.877500", "120508.885000", "120510.892500", "120512.902500", "120514.910000", "120516.917500", "120518.925000", "120520.932500", "120522.942500", "120524.950000", "120526.957500", "120528.965000", "120530.975000", "120532.982500", "120534.990000", "120536.997500", "120539.005000", "120541.015000", "120543.022500", "120545.030000", "120547.037500", "120549.045000", "120551.055000", "120553.062500", "120555.070000", "120557.077500", "120559.087500", "120601.095000", "120603.102500", "120605.110000", "120607.117500", "120609.127500", "120611.135000", "120613.142500", "120615.150000", "120617.157500", "120619.167500", "120621.175000", "120623.182500", "120625.190000", "120627.200000", "120629.207500", "120631.215000", "120633.222500", "120635.230000", "120637.240000", "120639.247500", "120641.255000", "120643.262500", "120645.270000", "120647.280000", "120649.287500", "120651.295000", "120653.302500", "120655.310000", "120657.320000", "120659.327500", "120701.335000", "120703.342500", "120705.352500", "120707.360000", "120709.367500", "120711.375000", "120713.382500", "120715.392500", "120717.400000", "120719.407500", "120721.415000", "120723.422500", "120725.432500", "120727.440000", "120729.447500", "120731.455000", "120733.465000", "120735.472500", "120737.480000", "120739.487500", "120741.495000", "120743.505000", "120745.512500", "120747.520000", "120749.527500", "120751.535000", "120753.545000", "120755.552500", "120757.560000", "120759.567500", "120801.577500", "120803.585000", "120805.592500", "120807.600000", "120809.607500", "120811.617500", "120813.625000", "120815.632500", "120817.640000", "120819.647500", "120821.657500", "120823.665000", "120825.672500", "120827.680000", "120829.690000", "120831.697500", "120833.705000", "120835.712500", "120837.720000", "120839.730000", "120841.737500", "120843.745000", "120845.752500", "120847.760000", "120849.770000", "120851.777500", "120853.785000", "120855.792500", "120857.800000", "120859.810000", "120901.817500", "120903.825000", "120905.832500", "120907.842500", "120909.850000", "120911.857500", "120913.865000", "120915.872500", "120917.882500", "120919.890000", "120921.897500", "120923.905000", "120925.912500", "120927.922500", "120929.930000", "120931.937500", "120933.945000", "120935.955000", "120937.962500", "120939.970000", "120941.977500", "120943.985000", "120945.995000", "120948.002500", "120950.010000", "120952.017500", "120954.025000", "120956.035000", "120958.042500", "121000.050000", "121002.057500", "121004.067500", "121006.075000", "121008.082500", "121010.090000", "121012.097500", "121014.107500", "121016.115000", "121018.122500", "121020.130000", "121022.137500", "121024.147500", "121026.155000", "121028.162500", "121030.170000", "121032.177500"],
      "ContentTime": ["115532.375000", "115532.375000", "115532.375000", "115612.359000", "115612.359000", "115612.375000", "115612.375000", "115612.375000", "115612.375000", "115612.375000", "115612.375000", "115612.375000", "115612.390000", "115612.390000", "115612.390000", "115612.390000", "115612.406000", "115612.406000", "115612.406000", "115612.406000", "115612.406000", "115612.406000", "115612.406000", "115652.359000", "115652.375000", "115652.375000", "115652.375000", "115652.390000", "115652.390000", "115652.390000", "115652.390000", "115652.390000", "115652.390000", "115652.406000", "115652.406000", "115652.406000", "115652.406000", "115652.406000", "115652.406000", "115652.406000", "115652.421000", "115652.421000", "115652.421000", "115732.359000", "115732.359000", "115732.375000", "115732.375000", "115732.375000", "115732.375000", "115732.390000", "115732.390000", "115732.390000", "115732.390000", "115732.390000", "115732.390000", "115732.390000", "115732.390000", "115732.406000", "115732.406000", "115732.406000", "115732.421000", "115732.421000", "115732.421000", "115812.359000", "115812.375000", "115812.375000", "115812.375000", "115812.375000", "115812.375000", "115812.390000", "115812.390000", "115812.390000", "115812.390000", "115812.390000", "115812.390000", "115812.406000", "115812.406000", "115812.406000", "115812.406000", "115812.406000", "115812.406000", "115812.421000", "115812.421000", "115852.359000", "115852.359000", "115852.375000", "115852.375000", "115852.375000", "115852.375000", "115852.375000", "115852.375000", "115852.375000", "115852.390000", "115852.390000", "115852.390000", "115852.390000", "115852.390000", "115852.390000", "115852.390000", "115852.406000", "115852.406000", "115852.406000", "115852.406000", "115932.359000", "115932.359000", "115932.375000", "115932.375000", "115932.375000", "115932.375000", "115932.390000", "115932.390000", "115932.390000", "115932.390000", "115932.390000", "115932.390000", "115932.390000", "115932.390000", "115932.406000", "115932.406000", "115932.406000", "115932.406000", "115932.406000", "115932.406000", "120012.359000", "120012.359000", "120012.375000", "120012.375000", "120012.375000", "120012.375000", "120012.375000", "120012.375000", "120012.375000", "120012.390000", "120012.390000", "120012.390000", "120012.390000", "120012.390000", "120012.390000", "120012.390000", "120012.406000", "120012.406000", "120012.406000", "120012.406000", "120052.359000", "120052.359000", "120052.375000", "120052.375000", "120052.375000", "120052.375000", "120052.375000", "120052.375000", "120052.390000", "120052.390000", "120052.390000", "120052.390000", "120052.390000", "120052.390000", "120052.390000", "120052.406000", "120052.406000", "120052.406000", "120052.406000", "120052.406000", "120132.359000", "120132.359000", "120132.375000", "120132.375000", "120132.375000", "120132.375000", "120132.375000", "120132.375000", "120132.375000", "120132.390000", "120132.390000", "120132.390000", "120132.390000", "120132.406000", "120132.406000", "120132.406000", "120132.406000", "120132.406000", "120132.406000", "120132.406000", "120212.359000", "120212.359000", "120212.375000", "120212.375000", "120212.375000", "120212.375000", "120212.375000", "120212.375000", "120212.375000", "120212.390000", "120212.390000", "120212.390000", "120212.390000", "120212.390000", "120212.406000", "120212.406000", "120212.421000", "120212.421000", "120212.421000", "120212.421000", "120252.359000", "120252.375000", "120252.375000", "120252.375000", "120252.390000", "120252.390000", "120252.390000", "120252.390000", "120252.390000", "120252.390000", "120252.390000", "120252.406000", "120252.406000", "120252.406000", "120252.421000", "120252.421000", "120252.421000", "120252.421000", "120252.421000", "120252.421000", "120332.359000", "120332.359000", "120332.375000", "120332.375000", "120332.375000", "120332.375000", "120332.390000", "120332.390000", "120332.390000", "120332.406000", "120332.406000", "120332.406000", "120332.406000", "120332.406000", "120332.406000", "120332.421000", "120332.421000", "120332.421000", "120332.421000", "120332.421000", "120412.359000", "120412.359000", "120412.375000", "120412.375000", "120412.375000", "120412.390000", "120412.390000", "120412.390000", "120412.390000", "120412.406000", "120412.406000", "120412.421000", "120412.421000", "120412.421000", "120412.421000", "120412.421000", "120412.421000", "120412.421000", "120412.437000", "120412.437000", "120452.359000", "120452.359000", "120452.375000", "120452.375000", "120452.375000", "120452.375000", "120452.375000", "120452.375000", "120452.375000", "120452.390000", "120452.390000", "120452.390000", "120452.390000", "120452.406000", "120452.406000", "120452.406000", "120452.406000", "120452.406000", "120452.406000", "120452.406000", "120532.359000", "120532.359000", "120532.375000", "120532.375000", "120532.375000", "120532.375000", "120532.375000", "120532.375000", "120532.375000", "120532.390000", "120532.390000", "120532.390000", "120532.390000", "120532.390000", "120532.390000", "120532.390000", "120532.406000", "120532.406000", "120532.406000", "120532.406000", "120552.359000", "120552.359000", "120552.375000", "120552.375000", "120552.375000", "120552.375000", "120552.390000", "120552.390000", "120552.390000", "120552.390000", "120632.359000", "120632.359000", "120632.375000", "120632.375000", "120632.375000", "120632.375000", "120632.375000", "120632.375000", "120632.375000", "120632.390000", "120632.390000", "120632.390000", "120632.390000", "120632.390000", "120632.390000", "120632.390000", "120632.406000", "120632.406000", "120632.406000", "120632.406000", "120712.359000", "120712.359000", "120712.375000", "120712.375000", "120712.375000", "120712.375000", "120712.375000", "120712.375000", "120712.375000", "120712.390000", "120712.390000", "120712.390000", "120712.390000", "120712.390000", "120712.406000", "120712.406000", "120712.406000", "120712.406000", "120712.406000", "120712.406000", "120752.359000", "120752.359000", "120752.375000", "120752.375000", "120752.375000", "120752.375000", "120752.375000", "120752.375000", "120752.390000", "120752.390000", "120752.390000", "120752.390000", "120752.390000", "120752.390000", "120752.390000", "120752.406000", "120752.406000", "120752.406000", "120752.406000", "120752.406000", "120832.359000", "120832.359000", "120832.375000", "120832.375000", "120832.375000", "120832.375000", "120832.375000", "120832.375000", "120832.390000", "120832.390000", "120832.390000", "120832.390000", "120832.406000", "120832.406000", "120832.406000", "120832.406000", "120832.406000", "120832.406000", "120832.406000", "120832.421000", "120912.375000", "120912.375000", "120912.375000", "120912.375000", "120912.375000", "120912.375000", "120912.375000", "120912.390000", "120912.390000", "120912.390000", "120912.390000", "120912.390000", "120912.390000", "120912.390000", "120912.406000", "120912.406000", "120912.406000", "120912.406000", "120912.421000", "120912.421000", "120952.375000", "120952.375000", "120952.375000", "120952.375000", "120952.375000", "120952.390000", "120952.390000", "120952.390000", "120952.390000", "120952.390000", "120952.406000", "120952.406000", "120952.406000", "120952.406000", "120952.406000", "120952.421000", "120952.421000", "120952.421000", "120952.421000", "120952.421000", "121032.109000", "121032.125000", "121032.125000", "121032.125000", "121032.125000", "121032.125000", "121032.125000", "121032.140000", "121032.140000", "121032.140000", "121032.140000", "121032.156000", "121032.156000", "121032.156000", "121032.156000", "121032.156000", "121032.156000", "121032.171000", "121032.171000"],
