{
  "AcquisitionMatrixPE": 72,
  "AcquisitionNumber": 1,
  "AcquisitionTime": "14:31:5.140000",
  "BandwidthPerPixelPhaseEncode": 28.935,
  "BaseResolution": 72,
  "CoilString": "C:HEA;HEP",
  "ConversionSoftware": "dcm2niix",
  "ConversionSoftwareVersion": "v1.0.20190410  GCC6.3.0",
  "DerivedVendorReportedEchoSpacing": 0.000480003,
  "DeviceSerialNumber": "35149",
  "DwellTime": 2.9e-06,
  "EchoTime": 0.025,
  "EffectiveEchoSpacing": 0.000480003,
  "FlipAngle": 75,
  "ImageOrientationPatientDICOM": [0.991286, 0.129438, -0.0244345, -0.128811, 0.913754, -0.385306],
  "ImageType": [
    "ORIGINAL",
    "PRIMARY",
    "M",
    "ND",
    "MOSAIC"
],
  "ImagingFrequency": 123.255,
  "InPlanePhaseEncodingDirectionDICOM": "COL",
  "InstitutionAddress": "Street_StreetNo_Rehovot_91E162_District_IL_ZIP",
  "InstitutionName": "Weizmann",
  "InstitutionalDepartmentName": "Department",
  "MRAcquisitionType": "2D",
  "MagneticFieldStrength": 3,
  "Manufacturer": "Siemens",
  "ManufacturersModelName": "TrioTim",
  "Modality": "MR",
  "PartialFourier": 1,
  "PatientPosition": "HFS",
  "PercentPhaseFOV": 100,
  "PhaseEncodingDirection": "j-",
  "PhaseEncodingSteps": 72,
  "PhaseResolution": 1,
  "PixelBandwidth": 2395,
  "ProcedureStepDescription": "Weizmann_Sobel",
  "ProtocolName": "exp1_30_to_AC-PC",
  "PulseSequenceDetails": "%SiemensSeq%_ep2d_pace",
  "ReceiveCoilName": "HeadMatrix",
  "ReconMatrixPE": 72,
  "RepetitionTime": 2,
  "SAR": 0.149138,
  "ScanOptions": "FS",
  "ScanningSequence": "EP",
  "SequenceName": "_epfid2d1_72",
  "SequenceVariant": "SK",
  "SeriesDescription": "exp1_30_to_AC-PC",
  "SeriesNumber": 13,
  "ShimSetting": [2491, 9397, -5897, 593, 648, -505, -943, 155],
  "SliceThickness": 3.7,
  "SliceTiming": [0.9925, 0, 1.0525, 0.0575, 1.11, 0.1175, 1.17, 0.175, 1.2275, 0.2325, 1.285, 0.2925, 1.345, 0.35, 1.4025, 0.41, 1.4625, 0.4675, 1.52, 0.525, 1.5775, 0.585, 1.6375, 0.6425, 1.695, 0.7025, 1.7525, 0.76, 1.8125, 0.8175, 1.87, 0.8775, 1.93, 0.935],
  "SoftwareVersions": "syngo_MR_B17",
  "SpacingBetweenSlices": 3.7,
  "StationName": "MRC35149",
  "TaskName": "blank",
  "TotalReadoutTime": 0.0340802,
  "TxRefAmp": 280.888,
  "VendorReportedEchoSpacing": 0.00048,
  "dcmmeta_affine": [
    [-2.9738593101501465, -0.38643404841423035, 0.1019204780459404, 119.33301544189453],
    [-0.388312965631485, 2.741262435913086, -1.4248573780059814, -46.115440368652344],
    [-0.07330337911844254, 1.1559191942214966, 3.4131224155426025, -63.57701873779297],
    [0.0, 0.0, 0.0, 1.0]
],
  "dcmmeta_reorient_transform": [
    [0.0, -1.0, 0.0, 71.0],
    [1.0, 0.0, 0.0, 0.0],
    [0.0, 0.0, 1.0, 0.0],
    [0.0, 0.0, 0.0, 1.0]
],
  "dcmmeta_shape": [72, 72, 34, 466],
  "dcmmeta_slice_dim": 2,
  "dcmmeta_version": 0.6,
  "global": {
    "const": {
      "AcquisitionMatrix": [72, 0, 0, 72],
      "AngioFlag": "N",
      "BitsAllocated": 16,
      "BitsStored": 12,
      "Columns": 432,
      "EchoNumbers": 1,
      "EchoTime": 25.0,
      "EchoTrainLength": 1,
      "FlipAngle": 75.0,
      "HighBit": 11,
      "ImageOrientationPatient": [0.99128646295615, 0.12943765122834, -0.0244344593631, -0.1288113451521, 0.91375413829559, -0.3853063873177],
      "ImagePositionPatient": [-557.63276208781, -711.8377592868, 239.7533005675],
      "ImageType": [
        "ORIGINAL",
        "PRIMARY",
        "M",
        "ND",
        "MOSAIC"
],
      "ImagedNucleus": "1H",
      "ImagingFrequency": 123.25465,
      "InPlanePhaseEncodingDirection": "COL",
      "MRAcquisitionType": "2D",
      "MagneticFieldStrength": 3.0,
      "Manufacturer": "SIEMENS",
      "ManufacturerModelName": "TrioTim",
      "Modality": "MR",
      "NumberOfAverages": 1.0,
      "NumberOfPhaseEncodingSteps": 72,
      "PercentPhaseFieldOfView": 100.0,
      "PercentSampling": 100.0,
      "PerformedProcedureStepStartTime": "135629.625000",
      "PhotometricInterpretation": "MONOCHROME2",
      "PixelBandwidth": 2395.0,
      "PixelRepresentation": 0,
      "PixelSpacing": [3.0, 3.0],
      "ProtocolName": "exp1_30_to_AC-PC",
      "RepetitionTime": 2000.0,
      "Rows": 432,
      "SAR": 0.14913776974862,
      "SamplesPerPixel": 1,
      "ScanOptions": "FS",
      "ScanningSequence": "EP",
      "SequenceName": "*epfid2d1_72",
      "SequenceVariant": "SK",
      "SeriesDescription": "exp1_30_to_AC-PC",
      "SeriesNumber": 13,
      "SeriesTime": "143121.578000",
      "SliceLocation": -37.601536076862,
      "SliceThickness": 3.7000000476837,
      "SmallestImagePixelValue": 0,
      "SoftwareVersions": "syngo MR B17",
      "SpacingBetweenSlices": 3.7000013682925,
      "SpecificCharacterSet": "ISO_IR 100",
      "StudyID": "1",
      "StudyTime": "135629.578000",
      "TransmitCoilName": "Body",
      "VariableFlipAngleFlag": "N",
      "WindowCenterWidthExplanation": "Algo1",
      "dBdt": 0.0},
    "slices": {}
  },
  "time": {
    "samples": {
      "AcquisitionNumber": [1, 2, 3, 4, 5, 6, 7, 8, 9, 10, 11, 12, 13, 14, 15, 16, 17, 18, 19, 20, 21, 22, 23, 24, 25, 26, 27, 28, 29, 30, 31, 32, 33, 34, 35, 36, 37, 38, 39, 40, 41, 42, 43, 44, 45, 46, 47, 48, 49, 50, 51, 52, 53, 54, 55, 56, 57, 58, 59, 60, 61, 62, 63, 64, 65, 66, 67, 68, 69, 70, 71, 72, 73, 74, 75, 76, 77, 78, 79, 80, 81, 82, 83, 84, 85, 86, 87, 88, 89, 90, 91, 92, 93, 94, 95, 96, 97, 98, 99, 100, 101, 102, 103, 104, 105, 106, 107, 108, 109, 110, 111, 112, 113, 114, 115, 116, 117, 118, 119, 120, 121, 122, 123, 124, 125, 126, 127, 128, 129, 130, 131, 132, 133, 134, 135, 136, 137, 138, 139, 140, 141, 142, 143, 144, 145, 146, 147, 148, 149, 150, 151, 152, 153, 154, 155, 156, 157, 158, 159, 160, 161, 162, 163, 164, 165, 166, 167, 168, 169, 170, 171, 172, 173, 174, 175, 176, 177, 178, 179, 180, 181, 182, 183, 184, 185, 186, 187, 188, 189, 190, 191, 192, 193, 194, 195, 196, 197, 198, 199, 200, 201, 202, 203, 204, 205, 206, 207, 208, 209, 210, 211, 212, 213, 214, 215, 216, 217, 218, 219, 220, 221, 222, 223, 224, 225, 226, 227, 228, 229, 230, 231, 232, 233, 234, 235, 236, 237, 238, 239, 240, 241, 242, 243, 244, 245, 246, 247, 248, 249, 250, 251, 252, 253, 254, 255, 256, 257, 258, 259, 260, 261, 262, 263, 264, 265, 266, 267, 268, 269, 270, 271, 272, 273, 274, 275, 276, 277, 278, 279, 280, 281, 282, 283, 284, 285, 286, 287, 288, 289, 290, 291, 292, 293, 294, 295, 296, 297, 298, 299, 300, 301, 302, 303, 304, 305, 306, 307, 308, 309, 310, 311, 312, 313, 314, 315, 316, 317, 318, 319, 320, 321, 322, 323, 324, 325, 326, 327, 328, 329, 330, 331, 332, 333, 334, 335, 336, 337, 338, 339, 340, 341, 342, 343, 344, 345, 346, 347, 348, 349, 350, 351, 352, 353, 354, 355, 356, 357, 358, 359, 360, 361, 362, 363, 364, 365, 366, 367, 368, 369, 370, 371, 372, 373, 374, 375, 376, 377, 378, 379, 380, 381, 382, 383, 384, 385, 386, 387, 388, 389, 390, 391, 392, 393, 394, 395, 396, 397, 398, 399, 400, 401, 402, 403, 404, 405, 406, 407, 408, 409, 410, 411, 412, 413, 414, 415, 416, 417, 418, 419, 420, 421, 422, 423, 424, 425, 426, 427, 428, 429, 430, 431, 432, 433, 434, 435, 436, 437, 438, 439, 440, 441, 442, 443, 444, 445, 446, 447, 448, 449, 450, 451, 452, 453, 454, 455, 456, 457, 458, 459, 460, 461, 462, 463, 464, 465, 466],
      "AcquisitionTime": ["143105.140000", "143107.150000", "143109.157500", "143111.165000", "143113.172500", "143115.182500", "143117.190000", "143119.197500", "143121.205000", "143123.212500", "143125.222500", "143127.230000", "143129.237500", "143131.245000", "143133.252500", "143135.262500", "143137.270000", "143139.277500", "143141.285000", "143143.292500", "143145.302500", "143147.310000", "143149.317500", "143151.325000", "143153.335000", "143155.342500", "143157.350000", "143159.357500", "143201.365000", "143203.375000", "143205.382500", "143207.390000", "143209.397500", "143211.405000", "143213.415000", "143215.422500", "143217.430000", "143219.437500", "143221.447500", "143223.455000", "143225.462500", "143227.470000", "143229.477500", "143231.487500", "143233.495000", "143235.502500", "143237.510000", "143239.517500", "143241.527500", "143243.535000", "143245.542500", "143247.550000", "143249.560000", "143251.567500", "143253.575000", "143255.582500", "143257.590000", "143259.600000", "143301.607500", "143303.615000", "143305.622500", "143307.630000", "143309.640000", "143311.647500", "143313.655000", "143315.662500", "143317.670000", "143319.680000", "143321.687500", "143323.695000", "143325.702500", "143327.712500", "143329.720000", "143331.727500", "143333.735000", "143335.742500", "143337.752500", "143339.760000", "143341.767500", "143343.775000", "143345.782500", "143347.792500", "143349.800000", "143351.807500", "143353.815000", "143355.825000", "143357.832500", "143359.840000", "143401.847500", "143403.855000", "143405.865000", "143407.872500", "143409.880000", "143411.887500", "143413.895000", "143415.905000", "143417.912500", "143419.920000", "143421.927500", "143423.937500", "143425.945000", "143427.952500", "143429.960000", "143431.967500", "143433.977500", "143435.985000", "143437.992500", "143440.000000", "143442.007500", "143444.017500", "143446.025000", "143448.032500", "143450.040000", "143452.050000", "143454.057500", "143456.065000", "143458.072500", "143500.080000", "143502.090000", "143504.097500", "143506.105000", "143508.112500", "143510.120000", "143512.130000", "143514.137500", "143516.145000", "143518.152500", "143520.160000", "143522.170000", "143524.177500", "143526.185000", "143528.192500", "143530.202500", "143532.210000", "143534.217500", "143536.225000", "143538.232500", "143540.242500", "143542.250000", "143544.257500", "143546.265000", "143548.272500", "143550.282500", "143552.290000", "143554.297500", "143556.305000", "143558.315000", "143600.322500", "143602.330000", "143604.337500", "143606.345000", "143608.355000", "143610.362500", "143612.370000", "143614.377500", "143616.385000", "143618.395000", "143620.402500", "143622.410000", "143624.417500", "143626.427500", "143628.435000", "143630.442500", "143632.450000", "143634.457500", "143636.467500", "143638.475000", "143640.482500", "143642.490000", "143644.497500", "143646.507500", "143648.515000", "143650.522500", "143652.530000", "143654.537500", "143656.547500", "143658.555000", "143700.562500", "143702.570000", "143704.580000", "143706.587500", "143708.595000", "143710.602500", "143712.610000", "143714.620000", "143716.627500", "143718.635000", "143720.642500", "143722.650000", "143724.660000", "143726.667500", "143728.675000", "143730.682500", "143732.692500", "143734.700000", "143736.707500", "143738.715000", "143740.722500", "143742.732500", "143744.740000", "143746.747500", "143748.755000", "143750.762500", "143752.772500", "143754.780000", "143756.787500", "143758.795000", "143800.805000", "143802.812500", "143804.820000", "143806.827500", "143808.835000", "143810.845000", "143812.852500", "143814.860000", "143816.867500", "143818.875000", "143820.885000", "143822.892500", "143824.900000", "143826.907500", "143828.915000", "143830.925000", "143832.932500", "143834.940000", "143836.947500", "143838.957500", "143840.965000", "143842.972500", "143844.980000", "143846.987500", "143848.997500", "143851.005000", "143853.012500", "143855.020000", "143857.027500", "143859.037500", "143901.045000", "143903.052500", "143905.060000", "143907.070000", "143909.077500", "143911.085000", "143913.092500", "143915.100000", "143917.110000", "143919.117500", "143921.125000", "143923.132500", "143925.140000", "143927.150000", "143929.157500", "143931.165000", "143933.172500", "143935.182500", "143937.190000", "143939.197500", "143941.205000", "143943.212500", "143945.222500", "143947.230000", "143949.237500", "143951.245000", "143953.252500", "143955.262500", "143957.270000", "143959.277500", "144001.285000", "144003.292500", "144005.302500", "144007.310000", "144009.317500", "144011.325000", "144013.335000", "144015.342500", "144017.350000", "144019.357500", "144021.365000", "144023.375000", "144025.382500", "144027.390000", "144029.397500", "144031.405000", "144033.415000", "144035.422500", "144037.430000", "144039.437500", "144041.447500", "144043.455000", "144045.462500", "144047.470000", "144049.477500", "144051.487500", "144053.495000", "144055.502500", "144057.510000", "144059.517500", "144101.527500", "144103.535000", "144105.542500", "144107.550000", "144109.560000", "144111.567500", "144113.575000", "144115.582500", "144117.590000", "144119.600000", "144121.607500", "144123.615000", "144125.622500", "144127.630000", "144129.640000", "144131.647500", "144133.655000", "144135.662500", "144137.670000", "144139.680000", "144141.687500", "144143.695000", "144145.702500", "144147.712500", "144149.720000", "144151.727500", "144153.735000", "144155.742500", "144157.752500", "144159.760000", "144201.767500", "144203.775000", "144205.782500", "144207.792500", "144209.800000", "144211.807500", "144213.815000", "144215.825000", "144217.832500", "144219.840000", "144221.847500", "144223.855000", "144225.865000", "144227.872500", "144229.880000", "144231.887500", "144233.895000", "144235.905000", "144237.912500", "144239.920000", "144241.927500", "144243.937500", "144245.945000", "144247.952500", "144249.960000", "144251.967500", "144253.977500", "144255.985000", "144257.992500", "144300.000000", "144302.007500", "144304.017500", "144306.025000", "144308.032500", "144310.040000", "144312.050000", "144314.057500", "144316.065000", "144318.072500", "144320.080000", "144322.090000", "144324.097500", "144326.105000", "144328.112500", "144330.120000", "144332.130000", "144334.137500", "144336.145000", "144338.152500", "144340.160000", "144342.170000", "144344.177500", "144346.185000", "144348.192500", "144350.202500", "144352.210000", "144354.217500", "144356.225000", "144358.232500", "144400.242500", "144402.250000", "144404.257500", "144406.265000", "144408.272500", "144410.282500", "144412.290000", "144414.297500", "144416.305000", "144418.315000", "144420.322500", "144422.330000", "144424.337500", "144426.345000", "144428.355000", "144430.362500", "144432.370000", "144434.377500", "144436.385000", "144438.395000", "144440.402500", "144442.410000", "144444.417500", "144446.427500", "144448.435000", "144450.442500", "144452.450000", "144454.457500", "144456.467500", "144458.475000", "144500.482500", "144502.490000", "144504.497500", "144506.507500", "144508.515000", "144510.522500", "144512.530000", "144514.537500", "144516.547500", "144518.555000", "144520.562500", "144522.570000", "144524.580000", "144526.587500", "144528.595000", "144530.602500", "144532.610000", "144534.620000", "144536.627500", "144538.635000", "144540.642500", "144542.650000", "144544.660000", "144546.667500", "144548.675000", "144550.682500", "144552.692500", "144554.700000", "144556.707500", "144558.715000", "144600.722500", "144602.732500", "144604.740000", "144606.747500", "144608.755000", "144610.762500", "144612.772500", "144614.780000", "144616.787500", "144618.795000", "144620.805000", "144622.812500", "144624.820000", "144626.827500", "144628.835000", "144630.845000", "144632.852500", "144634.860000", "144636.867500", "144638.875000"],
      "ContentTime": ["143121.578000", "143121.578000", "143121.593000", "143121.593000", "143121.609000", "143121.609000", "143121.609000", "143201.562000", "143201.578000", "143201.578000", "143201.578000", "143201.578000", "143201.578000", "143201.578000", "143201.578000", "143201.593000", "143201.593000", "143201.593000", "143201.593000", "143201.593000", "143201.593000", "143201.593000", "143201.609000", "143201.609000", "143201.609000", "143201.609000", "143201.609000", "143241.562000", "143241.578000", "143241.578000", "143241.578000", "143241.578000", "143241.578000", "143241.593000", "143241.593000", "143241.609000", "143241.609000", "143241.609000", "143241.625000", "143241.625000", "143241.625000", "143241.625000", "143241.625000", "143241.640000", "143241.640000", "143241.640000", "143241.640000", "143321.562000", "143321.578000", "143321.578000", "143321.578000", "143321.578000", "143321.578000", "143321.578000", "143321.578000", "143321.593000", "143321.593000", "143321.593000", "143321.593000", "143321.593000", "143321.593000", "143321.609000", "143321.609000", "143321.609000", "143321.609000", "143321.609000", "143321.609000", "143401.562000", "143401.578000", "143401.578000", "143401.578000", "143401.578000", "143401.593000", "143401.593000", "143401.593000", "143401.593000", "143401.593000", "143401.593000", "143401.593000", "143401.609000", "143401.609000", "143401.609000", "143401.609000", "143401.609000", "143401.609000", "143401.625000", "143401.625000", "143441.562000", "143441.578000", "143441.578000", "143441.578000", "143441.593000", "143441.593000", "143441.593000", "143441.593000", "143441.593000", "143441.593000", "143441.593000", "143441.609000", "143441.609000", "143441.609000", "143441.609000", "143441.609000", "143441.609000", "143441.625000", "143441.625000", "143441.625000", "143521.562000", "143521.578000", "143521.578000", "143521.578000", "143521.578000", "143521.578000", "143521.593000", "143521.593000", "143521.593000", "143521.593000", "143521.609000", "143521.609000", "143521.609000", "143521.609000", "143521.609000", "143521.609000", "143521.609000", "143521.609000", "143521.625000", "143521.625000", "143601.562000", "143601.578000", "143601.578000", "143601.578000", "143601.578000", "143601.578000", "143601.578000", "143601.578000", "143601.593000", "143601.593000", "143601.593000", "143601.593000", "143601.593000", "143601.593000", "143601.609000", "143601.609000", "143601.609000", "143601.609000", "143601.609000", "143601.609000", "143641.562000", "143641.578000", "143641.578000", "143641.593000", "143641.593000", "143641.593000", "143641.593000", "143641.593000", "143641.609000", "143641.609000", "143641.609000", "143641.609000", "143641.609000", "143641.625000", "143641.625000", "143641.625000", "143641.625000", "143641.625000", "143641.625000", "143641.640000", "143721.562000", "143721.578000", "143721.578000", "143721.578000", "143721.578000", "143721.578000", "143721.578000", "143721.578000", "143721.593000", "143721.593000", "143721.593000", "143721.593000", "143721.593000", "143721.593000", "143721.593000", "143721.609000", "143721.625000", "143721.625000", "143721.625000", "143721.625000", "143801.562000", "143801.578000", "143801.578000", "143801.578000", "143801.578000", "143801.593000", "143801.593000", "143801.593000", "143801.593000", "143801.593000", "143801.609000", "143801.609000", "143801.609000", "143801.609000", "143801.609000", "143801.609000", "143801.609000", "143801.625000", "143801.625000", "143801.625000", "143841.562000", "143841.578000", "143841.578000", "143841.578000", "143841.578000", "143841.578000", "143841.578000", "143841.593000", "143841.593000", "143841.593000", "143841.593000", "143841.593000", "143841.593000", "143841.593000", "143841.609000", "143841.609000", "143841.609000", "143841.609000", "143841.609000", "143841.609000", "143921.562000", "143921.578000", "143921.578000", "143921.578000", "143921.578000", "143921.578000", "143921.578000", "143921.593000", "143921.593000", "143921.593000", "143921.593000", "143921.593000", "143921.593000", "143921.593000", "143921.609000", "143921.609000", "143921.609000", "143921.609000", "143921.609000", "143921.609000", "144001.562000", "144001.578000", "144001.578000", "144001.578000", "144001.578000", "144001.593000", "144001.593000", "144001.593000", "144001.593000", "144001.593000", "144001.593000", "144001.593000", "144001.609000", "144001.609000", "144001.609000", "144001.609000", "144001.609000", "144001.625000", "144001.625000", "144001.640000", "144041.562000", "144041.578000", "144041.578000", "144041.578000", "144041.578000", "144041.578000", "144041.593000", "144041.593000", "144041.593000", "144041.593000", "144041.593000", "144041.593000", "144041.593000", "144041.609000", "144041.609000", "144041.609000", "144041.609000", "144041.609000", "144041.609000", "144041.625000", "144121.562000", "144121.578000", "144121.578000", "144121.578000", "144121.593000", "144121.593000", "144121.593000", "144121.593000", "144121.593000", "144121.593000", "144121.609000", "144121.609000", "144121.609000", "144121.609000", "144121.625000", "144121.625000", "144121.625000", "144121.640000", "144121.640000", "144121.640000", "144201.562000", "144201.578000", "144201.578000", "144201.578000", "144201.578000", "144201.578000", "144201.578000", "144201.593000", "144201.593000", "144201.593000", "144201.593000", "144201.593000", "144201.593000", "144201.593000", "144201.609000", "144201.609000", "144201.625000", "144201.625000", "144201.625000", "144201.625000", "144241.562000", "144241.578000", "144241.578000", "144241.578000", "144241.578000", "144241.593000", "144241.593000", "144241.593000", "144241.593000", "144241.593000", "144241.593000", "144241.609000", "144241.609000", "144241.609000", "144241.609000", "144241.625000", "144241.625000", "144241.625000", "144241.640000", "144241.640000", "144321.562000", "144321.578000", "144321.578000", "144321.578000", "144321.578000", "144321.578000", "144321.578000", "144321.578000", "144321.593000", "144321.593000", "144321.593000", "144321.593000", "144321.593000", "144321.593000", "144321.593000", "144321.609000", "144321.609000", "144321.609000", "144321.609000", "144321.609000", "144401.562000", "144401.578000", "144401.578000", "144401.578000", "144401.578000", "144401.578000", "144401.578000", "144401.578000", "144401.593000", "144401.593000", "144401.593000", "144401.593000", "144401.593000", "144401.593000", "144401.609000", "144401.609000", "144401.609000", "144401.609000", "144401.625000", "144401.625000", "144441.562000", "144441.578000", "144441.578000", "144441.593000", "144441.593000", "144441.593000", "144441.593000", "144441.593000", "144441.593000", "144441.593000", "144441.609000", "144441.609000", "144441.609000", "144441.609000", "144441.609000", "144441.609000", "144441.625000", "144441.625000", "144441.625000", "144441.625000", "144521.562000", "144521.578000", "144521.578000", "144521.578000", "144521.578000", "144521.578000", "144521.578000", "144521.593000", "144521.593000", "144521.593000", "144521.593000", "144521.593000", "144521.593000", "144521.609000", "144521.625000", "144521.625000", "144521.625000", "144521.625000", "144521.625000", "144521.640000", "144601.562000", "144601.578000", "144601.578000", "144601.578000", "144601.578000", "144601.578000", "144601.578000", "144601.578000", "144601.593000", "144601.593000", "144601.593000", "144601.593000", "144601.593000", "144601.593000", "144601.609000", "144601.609000", "144601.609000", "144601.609000", "144601.609000", "144601.625000", "144637.578000", "144637.578000", "144637.578000", "144637.578000", "144637.593000", "144637.593000", "144637.593000", "144637.593000", "144637.593000", "144637.593000", "144637.609000", "144637.609000", "144637.609000", "144637.609000", "144637.609000", "144637.609000", "144637.625000", "144637.625000", "144637.625000"],
