{
  "AcquisitionMatrixPE": 72,
  "AcquisitionNumber": 1,
  "AcquisitionTime": "14:47:37.840000",
  "BandwidthPerPixelPhaseEncode": 28.935,
  "BaseResolution": 72,
  "CoilString": "C:HEA;HEP",
  "ConversionSoftware": "dcm2niix",
  "ConversionSoftwareVersion": "v1.0.20190410  GCC6.3.0",
  "DerivedVendorReportedEchoSpacing": 0.000480003,
  "DeviceSerialNumber": "35149",
  "DwellTime": 2.9e-06,
  "EchoTime": 0.025,
  "EffectiveEchoSpacing": 0.000480003,
  "FlipAngle": 75,
  "ImageOrientationPatientDICOM": [0.991286, 0.129438, -0.0244345, -0.128811, 0.913754, -0.385306],
  "ImageType": [
    "ORIGINAL",
    "PRIMARY",
    "M",
    "ND",
    "MOSAIC"
],
  "ImagingFrequency": 123.255,
  "InPlanePhaseEncodingDirectionDICOM": "COL",
  "InstitutionAddress": "Street_StreetNo_Rehovot_91E162_District_IL_ZIP",
  "InstitutionName": "Weizmann",
  "InstitutionalDepartmentName": "Department",
  "MRAcquisitionType": "2D",
  "MagneticFieldStrength": 3,
  "Manufacturer": "Siemens",
  "ManufacturersModelName": "TrioTim",
  "Modality": "MR",
  "PartialFourier": 1,
  "PatientPosition": "HFS",
  "PercentPhaseFOV": 100,
  "PhaseEncodingDirection": "j-",
  "PhaseEncodingSteps": 72,
  "PhaseResolution": 1,
  "PixelBandwidth": 2395,
  "ProcedureStepDescription": "Weizmann_Sobel",
  "ProtocolName": "exp1_30_to_AC-PC",
  "PulseSequenceDetails": "%SiemensSeq%_ep2d_pace",
  "ReceiveCoilName": "HeadMatrix",
  "ReconMatrixPE": 72,
  "RepetitionTime": 2,
  "SAR": 0.149138,
  "ScanOptions": "FS",
  "ScanningSequence": "EP",
  "SequenceName": "_epfid2d1_72",
  "SequenceVariant": "SK",
  "SeriesDescription": "exp1_30_to_AC-PC",
  "SeriesNumber": 14,
  "ShimSetting": [2491, 9397, -5897, 593, 648, -505, -943, 155],
  "SliceThickness": 3.7,
  "SliceTiming": [0.995, 0, 1.0525, 0.0575, 1.11, 0.1175, 1.17, 0.175, 1.2275, 0.235, 1.285, 0.2925, 1.345, 0.35, 1.4025, 0.41, 1.4625, 0.4675, 1.52, 0.525, 1.5775, 0.585, 1.6375, 0.6425, 1.695, 0.7025, 1.7525, 0.76, 1.8125, 0.8175, 1.87, 0.8775, 1.93, 0.935],
  "SoftwareVersions": "syngo_MR_B17",
  "SpacingBetweenSlices": 3.7,
  "StationName": "MRC35149",
  "TaskName": "bodyodor",
  "TotalReadoutTime": 0.0340802,
  "TxRefAmp": 280.888,
  "VendorReportedEchoSpacing": 0.00048,
  "dcmmeta_affine": [
    [-2.9738593101501465, -0.38643404841423035, 0.1019204780459404, 119.33301544189453],
    [-0.388312965631485, 2.741262435913086, -1.4248573780059814, -46.115440368652344],
    [-0.07330337911844254, 1.1559191942214966, 3.4131224155426025, -63.57701873779297],
    [0.0, 0.0, 0.0, 1.0]
],
  "dcmmeta_reorient_transform": [
    [0.0, -1.0, 0.0, 71.0],
    [1.0, 0.0, 0.0, 0.0],
    [0.0, 0.0, 1.0, 0.0],
    [0.0, 0.0, 0.0, 1.0]
],
  "dcmmeta_shape": [72, 72, 34, 452],
  "dcmmeta_slice_dim": 2,
  "dcmmeta_version": 0.6,
  "global": {
    "const": {
      "AcquisitionMatrix": [72, 0, 0, 72],
      "AngioFlag": "N",
      "BitsAllocated": 16,
      "BitsStored": 12,
      "Columns": 432,
      "EchoNumbers": 1,
      "EchoTime": 25.0,
      "EchoTrainLength": 1,
      "FlipAngle": 75.0,
      "HighBit": 11,
      "ImageOrientationPatient": [0.99128646295615, 0.12943765122834, -0.0244344593631, -0.1288113451521, 0.91375413829559, -0.3853063873177],
      "ImagePositionPatient": [-557.63276208781, -711.8377592868, 239.7533005675],
      "ImageType": [
        "ORIGINAL",
        "PRIMARY",
        "M",
        "ND",
        "MOSAIC"
],
      "ImagedNucleus": "1H",
      "ImagingFrequency": 123.254673,
      "InPlanePhaseEncodingDirection": "COL",
      "MRAcquisitionType": "2D",
      "MagneticFieldStrength": 3.0,
      "Manufacturer": "SIEMENS",
      "ManufacturerModelName": "TrioTim",
      "Modality": "MR",
      "NumberOfAverages": 1.0,
      "NumberOfPhaseEncodingSteps": 72,
      "PercentPhaseFieldOfView": 100.0,
      "PercentSampling": 100.0,
      "PerformedProcedureStepStartTime": "135629.625000",
      "PhotometricInterpretation": "MONOCHROME2",
      "PixelBandwidth": 2395.0,
      "PixelRepresentation": 0,
      "PixelSpacing": [3.0, 3.0],
      "ProtocolName": "exp1_30_to_AC-PC",
      "RepetitionTime": 2000.0,
      "Rows": 432,
      "SAR": 0.14913776974862,
      "SamplesPerPixel": 1,
      "ScanOptions": "FS",
      "ScanningSequence": "EP",
      "SequenceName": "*epfid2d1_72",
      "SequenceVariant": "SK",
      "SeriesDescription": "exp1_30_to_AC-PC",
      "SeriesNumber": 14,
      "SeriesTime": "144831.203000",
      "SliceLocation": -37.601536076862,
      "SliceThickness": 3.7000000476837,
      "SmallestImagePixelValue": 0,
      "SoftwareVersions": "syngo MR B17",
      "SpacingBetweenSlices": 3.7000013682925,
      "SpecificCharacterSet": "ISO_IR 100",
      "StudyID": "1",
      "StudyTime": "135629.578000",
      "TransmitCoilName": "Body",
      "VariableFlipAngleFlag": "N",
      "WindowCenterWidthExplanation": "Algo1",
      "dBdt": 0.0},
    "slices": {}
  },
  "time": {
    "samples": {
      "AcquisitionNumber": [1, 2, 3, 4, 5, 6, 7, 8, 9, 10, 11, 12, 13, 14, 15, 16, 17, 18, 19, 20, 21, 22, 23, 24, 25, 26, 27, 28, 29, 30, 31, 32, 33, 34, 35, 36, 37, 38, 39, 40, 41, 42, 43, 44, 45, 46, 47, 48, 49, 50, 51, 52, 53, 54, 55, 56, 57, 58, 59, 60, 61, 62, 63, 64, 65, 66, 67, 68, 69, 70, 71, 72, 73, 74, 75, 76, 77, 78, 79, 80, 81, 82, 83, 84, 85, 86, 87, 88, 89, 90, 91, 92, 93, 94, 95, 96, 97, 98, 99, 100, 101, 102, 103, 104, 105, 106, 107, 108, 109, 110, 111, 112, 113, 114, 115, 116, 117, 118, 119, 120, 121, 122, 123, 124, 125, 126, 127, 128, 129, 130, 131, 132, 133, 134, 135, 136, 137, 138, 139, 140, 141, 142, 143, 144, 145, 146, 147, 148, 149, 150, 151, 152, 153, 154, 155, 156, 157, 158, 159, 160, 161, 162, 163, 164, 165, 166, 167, 168, 169, 170, 171, 172, 173, 174, 175, 176, 177, 178, 179, 180, 181, 182, 183, 184, 185, 186, 187, 188, 189, 190, 191, 192, 193, 194, 195, 196, 197, 198, 199, 200, 201, 202, 203, 204, 205, 206, 207, 208, 209, 210, 211, 212, 213, 214, 215, 216, 217, 218, 219, 220, 221, 222, 223, 224, 225, 226, 227, 228, 229, 230, 231, 232, 233, 234, 235, 236, 237, 238, 239, 240, 241, 242, 243, 244, 245, 246, 247, 248, 249, 250, 251, 252, 253, 254, 255, 256, 257, 258, 259, 260, 261, 262, 263, 264, 265, 266, 267, 268, 269, 270, 271, 272, 273, 274, 275, 276, 277, 278, 279, 280, 281, 282, 283, 284, 285, 286, 287, 288, 289, 290, 291, 292, 293, 294, 295, 296, 297, 298, 299, 300, 301, 302, 303, 304, 305, 306, 307, 308, 309, 310, 311, 312, 313, 314, 315, 316, 317, 318, 319, 320, 321, 322, 323, 324, 325, 326, 327, 328, 329, 330, 331, 332, 333, 334, 335, 336, 337, 338, 339, 340, 341, 342, 343, 344, 345, 346, 347, 348, 349, 350, 351, 352, 353, 354, 355, 356, 357, 358, 359, 360, 361, 362, 363, 364, 365, 366, 367, 368, 369, 370, 371, 372, 373, 374, 375, 376, 377, 378, 379, 380, 381, 382, 383, 384, 385, 386, 387, 388, 389, 390, 391, 392, 393, 394, 395, 396, 397, 398, 399, 400, 401, 402, 403, 404, 405, 406, 407, 408, 409, 410, 411, 412, 413, 414, 415, 416, 417, 418, 419, 420, 421, 422, 423, 424, 425, 426, 427, 428, 429, 430, 431, 432, 433, 434, 435, 436, 437, 438, 439, 440, 441, 442, 443, 444, 445, 446, 447, 448, 449, 450, 451, 452],
      "AcquisitionTime": ["144737.840000", "144739.847500", "144741.855000", "144743.862500", "144745.870000", "144747.880000", "144749.887500", "144751.895000", "144753.902500", "144755.910000", "144757.920000", "144759.927500", "144801.935000", "144803.942500", "144805.952500", "144807.960000", "144809.967500", "144811.975000", "144813.982500", "144815.992500", "144818.000000", "144820.007500", "144822.015000", "144824.022500", "144826.032500", "144828.040000", "144830.047500", "144832.055000", "144834.062500", "144836.072500", "144838.080000", "144840.087500", "144842.095000", "144844.105000", "144846.112500", "144848.120000", "144850.127500", "144852.135000", "144854.145000", "144856.152500", "144858.160000", "144900.167500", "144902.175000", "144904.185000", "144906.192500", "144908.200000", "144910.207500", "144912.217500", "144914.225000", "144916.232500", "144918.240000", "144920.247500", "144922.257500", "144924.265000", "144926.272500", "144928.280000", "144930.287500", "144932.297500", "144934.305000", "144936.312500", "144938.320000", "144940.330000", "144942.337500", "144944.345000", "144946.352500", "144948.360000", "144950.370000", "144952.377500", "144954.385000", "144956.392500", "144958.400000", "145000.410000", "145002.417500", "145004.425000", "145006.432500", "145008.442500", "145010.450000", "145012.457500", "145014.465000", "145016.472500", "145018.482500", "145020.490000", "145022.497500", "145024.505000", "145026.512500", "145028.522500", "145030.530000", "145032.537500", "145034.545000", "145036.552500", "145038.562500", "145040.570000", "145042.577500", "145044.585000", "145046.595000", "145048.602500", "145050.610000", "145052.617500", "145054.625000", "145056.635000", "145058.642500", "145100.650000", "145102.657500", "145104.665000", "145106.675000", "145108.682500", "145110.690000", "145112.697500", "145114.707500", "145116.715000", "145118.722500", "145120.730000", "145122.737500", "145124.747500", "145126.755000", "145128.762500", "145130.770000", "145132.777500", "145134.787500", "145136.795000", "145138.802500", "145140.810000", "145142.820000", "145144.827500", "145146.835000", "145148.842500", "145150.850000", "145152.860000", "145154.867500", "145156.875000", "145158.882500", "145200.890000", "145202.900000", "145204.907500", "145206.915000", "145208.922500", "145210.930000", "145212.940000", "145214.947500", "145216.955000", "145218.962500", "145220.972500", "145222.980000", "145224.987500", "145226.995000", "145229.002500", "145231.012500", "145233.020000", "145235.027500", "145237.035000", "145239.042500", "145241.052500", "145243.060000", "145245.067500", "145247.075000", "145249.085000", "145251.092500", "145253.100000", "145255.107500", "145257.115000", "145259.125000", "145301.132500", "145303.140000", "145305.147500", "145307.155000", "145309.165000", "145311.172500", "145313.180000", "145315.187500", "145317.197500", "145319.205000", "145321.212500", "145323.220000", "145325.227500", "145327.237500", "145329.245000", "145331.252500", "145333.260000", "145335.267500", "145337.277500", "145339.285000", "145341.292500", "145343.300000", "145345.307500", "145347.317500", "145349.325000", "145351.332500", "145353.340000", "145355.350000", "145357.357500", "145359.365000", "145401.372500", "145403.380000", "145405.390000", "145407.397500", "145409.405000", "145411.412500", "145413.420000", "145415.430000", "145417.437500", "145419.445000", "145421.452500", "145423.462500", "145425.470000", "145427.477500", "145429.485000", "145431.492500", "145433.502500", "145435.510000", "145437.517500", "145439.525000", "145441.532500", "145443.542500", "145445.550000", "145447.557500", "145449.565000", "145451.575000", "145453.582500", "145455.590000", "145457.597500", "145459.605000", "145501.615000", "145503.622500", "145505.630000", "145507.637500", "145509.645000", "145511.655000", "145513.662500", "145515.670000", "145517.677500", "145519.685000", "145521.695000", "145523.702500", "145525.710000", "145527.717500", "145529.727500", "145531.735000", "145533.742500", "145535.750000", "145537.757500", "145539.767500", "145541.775000", "145543.782500", "145545.790000", "145547.797500", "145549.807500", "145551.815000", "145553.822500", "145555.830000", "145557.840000", "145559.847500", "145601.855000", "145603.862500", "145605.870000", "145607.880000", "145609.887500", "145611.895000", "145613.902500", "145615.910000", "145617.920000", "145619.927500", "145621.935000", "145623.942500", "145625.952500", "145627.960000", "145629.967500", "145631.975000", "145633.982500", "145635.992500", "145638.000000", "145640.007500", "145642.015000", "145644.022500", "145646.032500", "145648.040000", "145650.047500", "145652.055000", "145654.062500", "145656.072500", "145658.080000", "145700.087500", "145702.095000", "145704.105000", "145706.112500", "145708.120000", "145710.127500", "145712.135000", "145714.145000", "145716.152500", "145718.160000", "145720.167500", "145722.175000", "145724.185000", "145726.192500", "145728.200000", "145730.207500", "145732.217500", "145734.225000", "145736.232500", "145738.240000", "145740.247500", "145742.257500", "145744.265000", "145746.272500", "145748.280000", "145750.287500", "145752.297500", "145754.305000", "145756.312500", "145758.320000", "145800.330000", "145802.337500", "145804.345000", "145806.352500", "145808.360000", "145810.370000", "145812.377500", "145814.385000", "145816.392500", "145818.400000", "145820.410000", "145822.417500", "145824.425000", "145826.432500", "145828.442500", "145830.450000", "145832.457500", "145834.465000", "145836.472500", "145838.482500", "145840.490000", "145842.497500", "145844.505000", "145846.512500", "145848.522500", "145850.530000", "145852.537500", "145854.545000", "145856.552500", "145858.562500", "145900.570000", "145902.577500", "145904.585000", "145906.595000", "145908.602500", "145910.610000", "145912.617500", "145914.625000", "145916.635000", "145918.642500", "145920.650000", "145922.657500", "145924.665000", "145926.675000", "145928.682500", "145930.690000", "145932.697500", "145934.707500", "145936.715000", "145938.722500", "145940.730000", "145942.737500", "145944.747500", "145946.755000", "145948.762500", "145950.770000", "145952.777500", "145954.787500", "145956.795000", "145958.802500", "150000.810000", "150002.820000", "150004.827500", "150006.835000", "150008.842500", "150010.850000", "150012.860000", "150014.867500", "150016.875000", "150018.882500", "150020.890000", "150022.900000", "150024.907500", "150026.915000", "150028.922500", "150030.930000", "150032.940000", "150034.947500", "150036.955000", "150038.962500", "150040.972500", "150042.980000", "150044.987500", "150046.995000", "150049.002500", "150051.012500", "150053.020000", "150055.027500", "150057.035000", "150059.042500", "150101.052500", "150103.060000", "150105.067500", "150107.075000", "150109.085000", "150111.092500", "150113.100000", "150115.107500", "150117.115000", "150119.125000", "150121.132500", "150123.140000", "150125.147500", "150127.155000", "150129.165000", "150131.172500", "150133.180000", "150135.187500", "150137.197500", "150139.205000", "150141.212500", "150143.220000", "150145.227500", "150147.237500", "150149.245000", "150151.252500", "150153.260000", "150155.267500", "150157.277500", "150159.285000", "150201.292500", "150203.300000", "150205.307500", "150207.317500", "150209.325000", "150211.332500", "150213.340000", "150215.350000", "150217.357500", "150219.365000", "150221.372500", "150223.380000", "150225.390000", "150227.397500", "150229.405000", "150231.412500", "150233.420000", "150235.430000", "150237.437500", "150239.445000", "150241.452500", "150243.462500"],
      "ContentTime": ["144831.203000", "144831.218000", "144831.218000", "144831.218000", "144831.218000", "144831.218000", "144831.218000", "144831.218000", "144831.234000", "144831.234000", "144831.234000", "144831.234000", "144831.234000", "144831.234000", "144831.234000", "144831.250000", "144831.250000", "144831.250000", "144831.265000", "144831.265000", "144831.265000", "144831.265000", "144831.265000", "144831.265000", "144831.265000", "144831.281000", "144911.203000", "144911.218000", "144911.218000", "144911.218000", "144911.218000", "144911.234000", "144911.234000", "144911.234000", "144911.234000", "144911.234000", "144911.234000", "144911.234000", "144911.250000", "144911.250000", "144911.250000", "144911.265000", "144911.265000", "144911.265000", "144911.265000", "144911.265000", "144951.203000", "144951.203000", "144951.203000", "144951.218000", "144951.218000", "144951.218000", "144951.218000", "144951.234000", "144951.234000", "144951.234000", "144951.250000", "144951.250000", "144951.250000", "144951.250000", "144951.250000", "144951.250000", "144951.250000", "144951.265000", "144951.265000", "144951.265000", "145031.203000", "145031.203000", "145031.203000", "145031.203000", "145031.203000", "145031.218000", "145031.218000", "145031.218000", "145031.218000", "145031.218000", "145031.218000", "145031.218000", "145031.234000", "145031.234000", "145031.234000", "145031.234000", "145031.234000", "145031.234000", "145031.234000", "145031.250000", "145111.203000", "145111.203000", "145111.203000", "145111.203000", "145111.203000", "145111.218000", "145111.218000", "145111.218000", "145111.218000", "145111.218000", "145111.218000", "145111.218000", "145111.234000", "145111.234000", "145111.234000", "145111.234000", "145111.234000", "145111.234000", "145111.234000", "145111.250000", "145131.203000", "145131.203000", "145131.203000", "145131.203000", "145131.203000", "145131.203000", "145131.218000", "145131.218000", "145131.218000", "145131.218000", "145211.203000", "145211.203000", "145211.203000", "145211.203000", "145211.203000", "145211.203000", "145211.203000", "145211.218000", "145211.218000", "145211.218000", "145211.218000", "145211.218000", "145211.218000", "145211.218000", "145211.234000", "145211.234000", "145211.234000", "145211.234000", "145211.234000", "145211.234000", "145251.203000", "145251.203000", "145251.203000", "145251.203000", "145251.203000", "145251.203000", "145251.218000", "145251.218000", "145251.218000", "145251.218000", "145251.218000", "145251.218000", "145251.218000", "145251.234000", "145251.234000", "145251.234000", "145251.234000", "145251.234000", "145251.234000", "145251.234000", "145331.203000", "145331.203000", "145331.203000", "145331.203000", "145331.203000", "145331.203000", "145331.218000", "145331.218000", "145331.218000", "145331.218000", "145331.218000", "145331.218000", "145331.218000", "145331.234000", "145331.234000", "145331.250000", "145331.250000", "145331.250000", "145331.250000", "145331.250000", "145411.203000", "145411.203000", "145411.203000", "145411.203000", "145411.203000", "145411.203000", "145411.218000", "145411.218000", "145411.218000", "145411.218000", "145411.218000", "145411.218000", "145411.218000", "145411.218000", "145411.234000", "145411.234000", "145411.234000", "145411.234000", "145411.234000", "145411.250000", "145451.203000", "145451.203000", "145451.203000", "145451.203000", "145451.203000", "145451.218000", "145451.218000", "145451.218000", "145451.218000", "145451.218000", "145451.218000", "145451.234000", "145451.234000", "145451.234000", "145451.234000", "145451.234000", "145451.250000", "145451.250000", "145451.250000", "145451.250000", "145531.203000", "145531.203000", "145531.203000", "145531.203000", "145531.203000", "145531.203000", "145531.218000", "145531.218000", "145531.218000", "145531.218000", "145531.218000", "145531.234000", "145531.234000", "145531.234000", "145531.234000", "145531.234000", "145531.234000", "145531.234000", "145531.250000", "145531.250000", "145611.203000", "145611.203000", "145611.203000", "145611.203000", "145611.203000", "145611.203000", "145611.218000", "145611.218000", "145611.218000", "145611.218000", "145611.218000", "145611.218000", "145611.218000", "145611.218000", "145611.234000", "145611.234000", "145611.234000", "145611.234000", "145611.234000", "145611.250000", "145651.203000", "145651.203000", "145651.203000", "145651.203000", "145651.203000", "145651.203000", "145651.218000", "145651.218000", "145651.218000", "145651.218000", "145651.218000", "145651.234000", "145651.234000", "145651.234000", "145651.234000", "145651.250000", "145651.250000", "145651.265000", "145651.265000", "145651.265000", "145731.203000", "145731.203000", "145731.203000", "145731.203000", "145731.218000", "145731.218000", "145731.218000", "145731.218000", "145731.218000", "145731.218000", "145731.218000", "145731.234000", "145731.234000", "145731.234000", "145731.234000", "145731.250000", "145731.250000", "145731.265000", "145731.265000", "145731.265000", "145811.203000", "145811.203000", "145811.203000", "145811.203000", "145811.203000", "145811.203000", "145811.203000", "145811.218000", "145811.218000", "145811.218000", "145811.218000", "145811.218000", "145811.218000", "145811.218000", "145811.234000", "145811.234000", "145811.234000", "145811.234000", "145811.234000", "145811.234000", "145851.203000", "145851.203000", "145851.203000", "145851.218000", "145851.218000", "145851.234000", "145851.234000", "145851.234000", "145851.234000", "145851.234000", "145851.234000", "145851.234000", "145851.250000", "145851.250000", "145851.250000", "145851.250000", "145851.250000", "145851.250000", "145851.250000", "145851.265000", "145931.203000", "145931.203000", "145931.203000", "145931.203000", "145931.203000", "145931.203000", "145931.218000", "145931.218000", "145931.218000", "145931.218000", "145931.218000", "145931.218000", "145931.218000", "145931.234000", "145931.234000", "145931.234000", "145931.234000", "145931.234000", "145931.234000", "145931.234000", "150011.203000", "150011.203000", "150011.203000", "150011.203000", "150011.203000", "150011.203000", "150011.218000", "150011.218000", "150011.218000", "150011.218000", "150011.218000", "150011.218000", "150011.218000", "150011.234000", "150011.234000", "150011.234000", "150011.234000", "150011.234000", "150011.234000", "150011.234000", "150051.203000", "150051.203000", "150051.203000", "150051.203000", "150051.218000", "150051.218000", "150051.218000", "150051.218000", "150051.218000", "150051.218000", "150051.218000", "150051.234000", "150051.234000", "150051.250000", "150051.250000", "150051.250000", "150051.250000", "150051.250000", "150051.265000", "150051.265000", "150131.203000", "150131.203000", "150131.203000", "150131.203000", "150131.203000", "150131.203000", "150131.218000", "150131.218000", "150131.218000", "150131.218000", "150131.218000", "150131.218000", "150131.218000", "150131.234000", "150131.234000", "150131.234000", "150131.234000", "150131.234000", "150131.234000", "150131.234000", "150211.203000", "150211.203000", "150211.203000", "150211.203000", "150211.203000", "150211.203000", "150211.218000", "150211.218000", "150211.218000", "150211.218000", "150211.218000", "150211.218000", "150211.234000", "150211.234000", "150211.234000", "150211.234000", "150211.234000", "150211.250000", "150211.250000", "150211.250000", "150242.562000", "150242.578000", "150242.578000", "150242.578000", "150242.578000", "150242.578000", "150242.593000", "150242.593000", "150242.593000", "150242.593000", "150242.593000", "150242.593000", "150242.593000", "150242.609000", "150242.609000", "150242.609000"],
