{
  "AcquisitionMatrixPE": 72,
  "AcquisitionNumber": 1,
  "AcquisitionTime": "14:56:55.017500",
  "BandwidthPerPixelPhaseEncode": 28.935,
  "BaseResolution": 72,
  "CoilString": "C:HEA;HEP",
  "ConversionSoftware": "dcm2niix",
  "ConversionSoftwareVersion": "v1.0.20190410  GCC6.3.0",
  "DerivedVendorReportedEchoSpacing": 0.000480003,
  "DeviceSerialNumber": "35149",
  "DwellTime": 2.9e-06,
  "EchoTime": 0.025,
  "EffectiveEchoSpacing": 0.000480003,
  "FlipAngle": 75,
  "ImageOrientationPatientDICOM": [0.995675, -0.0908127, -0.0195845, 0.0792202, 0.940087, -0.331604],
  "ImageType": [
    "ORIGINAL",
    "PRIMARY",
    "M",
    "ND",
    "MOSAIC"
],
  "ImagingFrequency": 123.255,
  "InPlanePhaseEncodingDirectionDICOM": "COL",
  "InstitutionAddress": "Street_StreetNo_Rehovot_91E162_District_IL_ZIP",
  "InstitutionName": "Weizmann",
  "InstitutionalDepartmentName": "Department",
  "MRAcquisitionType": "2D",
  "MagneticFieldStrength": 3,
  "Manufacturer": "Siemens",
  "ManufacturersModelName": "TrioTim",
  "Modality": "MR",
  "PartialFourier": 1,
  "PatientPosition": "HFS",
  "PercentPhaseFOV": 100,
  "PhaseEncodingDirection": "j-",
  "PhaseEncodingSteps": 72,
  "PhaseResolution": 1,
  "PixelBandwidth": 2395,
  "ProcedureStepDescription": "Weizmann_Sobel",
  "ProtocolName": "exp1_30_to_AC-PC",
  "PulseSequenceDetails": "%SiemensSeq%_ep2d_pace",
  "ReceiveCoilName": "HeadMatrix",
  "ReconMatrixPE": 72,
  "RepetitionTime": 2,
  "SAR": 0.126267,
  "ScanOptions": "FS",
  "ScanningSequence": "EP",
  "SequenceName": "_epfid2d1_72",
  "SequenceVariant": "SK",
  "SeriesDescription": "exp1_30_to_AC-PC",
  "SeriesNumber": 4,
  "ShimSetting": [2308, 9246, -5373, 606, 68, -935, 75, 115],
  "SliceThickness": 3.7,
  "SliceTiming": [0.995, 0, 1.0525, 0.06, 1.1125, 0.1175, 1.17, 0.1775, 1.2275, 0.235, 1.2875, 0.2925, 1.345, 0.3525, 1.405, 0.41, 1.4625, 0.4675, 1.52, 0.5275, 1.58, 0.585, 1.6375, 0.645, 1.695, 0.7025, 1.755, 0.76, 1.8125, 0.82, 1.8725, 0.8775, 1.93, 0.9375],
  "SoftwareVersions": "syngo_MR_B17",
  "SpacingBetweenSlices": 3.7,
  "StationName": "MRC35149",
  "TaskName": "bodyodor",
  "TotalReadoutTime": 0.0340802,
  "TxRefAmp": 281.266,
  "VendorReportedEchoSpacing": 0.00048,
  "dcmmeta_affine": [
    [-2.9870262145996094, 0.23766052722930908, -0.17954225838184357, 98.8116455078125],
    [0.2724382281303406, 2.820260524749756, -1.2158868312835693, -71.6065673828125],
    [-0.05875341221690178, 0.9948108792304993, 3.4898974895477295, -61.48820114135742],
    [0.0, 0.0, 0.0, 1.0]
],
  "dcmmeta_reorient_transform": [
    [0.0, -1.0, 0.0, 71.0],
    [1.0, 0.0, 0.0, 0.0],
    [0.0, 0.0, 1.0, 0.0],
    [0.0, 0.0, 0.0, 1.0]
],
  "dcmmeta_shape": [72, 72, 34, 450],
  "dcmmeta_slice_dim": 2,
  "dcmmeta_version": 0.6,
  "global": {
    "const": {
      "AcquisitionMatrix": [72, 0, 0, 72],
      "AngioFlag": "N",
      "BitsAllocated": 16,
      "BitsStored": 12,
      "Columns": 432,
      "EchoNumbers": 1,
      "EchoTime": 25.0,
      "EchoTrainLength": 1,
      "FlipAngle": 75.0,
      "HighBit": 11,
      "ImageOrientationPatient": [0.99567539608334, -0.0908127421439, -0.0195844708529, 0.07922017531513, 0.94008680713003, -0.331603617114],
      "ImagePositionPatient": [-696.12914886233, -587.2399182077, 198.78493646826],
      "ImageType": [
        "ORIGINAL",
        "PRIMARY",
        "M",
        "ND",
        "MOSAIC"
],
      "ImagedNucleus": "1H",
      "ImagingFrequency": 123.254537,
      "InPlanePhaseEncodingDirection": "COL",
      "MRAcquisitionType": "2D",
      "MagneticFieldStrength": 3.0,
      "Manufacturer": "SIEMENS",
      "ManufacturerModelName": "TrioTim",
      "Modality": "MR",
      "NumberOfAverages": 1.0,
      "NumberOfPhaseEncodingSteps": 72,
      "PercentPhaseFieldOfView": 100.0,
      "PercentSampling": 100.0,
      "PerformedProcedureStepStartTime": "144918.859000",
      "PhotometricInterpretation": "MONOCHROME2",
      "PixelBandwidth": 2395.0,
      "PixelRepresentation": 0,
      "PixelSpacing": [3.0, 3.0],
      "ProtocolName": "exp1_30_to_AC-PC",
      "RepetitionTime": 2000.0,
      "Rows": 432,
      "SAR": 0.12626742969107,
      "SamplesPerPixel": 1,
      "ScanOptions": "FS",
      "ScanningSequence": "EP",
      "SequenceName": "*epfid2d1_72",
      "SequenceVariant": "SK",
      "SeriesDescription": "exp1_30_to_AC-PC",
      "SeriesNumber": 4,
      "SeriesTime": "145752.812000",
      "SliceLocation": -39.260241402879,
      "SliceThickness": 3.7000000476837,
      "SmallestImagePixelValue": 0,
      "SoftwareVersions": "syngo MR B17",
      "SpacingBetweenSlices": 3.7000000063547,
      "SpecificCharacterSet": "ISO_IR 100",
      "StudyID": "1",
      "StudyTime": "144918.812000",
      "TransmitCoilName": "Body",
      "VariableFlipAngleFlag": "N",
      "WindowCenterWidthExplanation": "Algo1",
      "dBdt": 0.0},
    "slices": {}
  },
  "time": {
    "samples": {
      "AcquisitionNumber": [1, 2, 3, 4, 5, 6, 7, 8, 9, 10, 11, 12, 13, 14, 15, 16, 17, 18, 19, 20, 21, 22, 23, 24, 25, 26, 27, 28, 29, 30, 31, 32, 33, 34, 35, 36, 37, 38, 39, 40, 41, 42, 43, 44, 45, 46, 47, 48, 49, 50, 51, 52, 53, 54, 55, 56, 57, 58, 59, 60, 61, 62, 63, 64, 65, 66, 67, 68, 69, 70, 71, 72, 73, 74, 75, 76, 77, 78, 79, 80, 81, 82, 83, 84, 85, 86, 87, 88, 89, 90, 91, 92, 93, 94, 95, 96, 97, 98, 99, 100, 101, 102, 103, 104, 105, 106, 107, 108, 109, 110, 111, 112, 113, 114, 115, 116, 117, 118, 119, 120, 121, 122, 123, 124, 125, 126, 127, 128, 129, 130, 131, 132, 133, 134, 135, 136, 137, 138, 139, 140, 141, 142, 143, 144, 145, 146, 147, 148, 149, 150, 151, 152, 153, 154, 155, 156, 157, 158, 159, 160, 161, 162, 163, 164, 165, 166, 167, 168, 169, 170, 171, 172, 173, 174, 175, 176, 177, 178, 179, 180, 181, 182, 183, 184, 185, 186, 187, 188, 189, 190, 191, 192, 193, 194, 195, 196, 197, 198, 199, 200, 201, 202, 203, 204, 205, 206, 207, 208, 209, 210, 211, 212, 213, 214, 215, 216, 217, 218, 219, 220, 221, 222, 223, 224, 225, 226, 227, 228, 229, 230, 231, 232, 233, 234, 235, 236, 237, 238, 239, 240, 241, 242, 243, 244, 245, 246, 247, 248, 249, 250, 251, 252, 253, 254, 255, 256, 257, 258, 259, 260, 261, 262, 263, 264, 265, 266, 267, 268, 269, 270, 271, 272, 273, 274, 275, 276, 277, 278, 279, 280, 281, 282, 283, 284, 285, 286, 287, 288, 289, 290, 291, 292, 293, 294, 295, 296, 297, 298, 299, 300, 301, 302, 303, 304, 305, 306, 307, 308, 309, 310, 311, 312, 313, 314, 315, 316, 317, 318, 319, 320, 321, 322, 323, 324, 325, 326, 327, 328, 329, 330, 331, 332, 333, 334, 335, 336, 337, 338, 339, 340, 341, 342, 343, 344, 345, 346, 347, 348, 349, 350, 351, 352, 353, 354, 355, 356, 357, 358, 359, 360, 361, 362, 363, 364, 365, 366, 367, 368, 369, 370, 371, 372, 373, 374, 375, 376, 377, 378, 379, 380, 381, 382, 383, 384, 385, 386, 387, 388, 389, 390, 391, 392, 393, 394, 395, 396, 397, 398, 399, 400, 401, 402, 403, 404, 405, 406, 407, 408, 409, 410, 411, 412, 413, 414, 415, 416, 417, 418, 419, 420, 421, 422, 423, 424, 425, 426, 427, 428, 429, 430, 431, 432, 433, 434, 435, 436, 437, 438, 439, 440, 441, 442, 443, 444, 445, 446, 447, 448, 449, 450],
      "AcquisitionTime": ["145655.017500", "145657.025000", "145659.032500", "145701.042500", "145703.050000", "145705.057500", "145707.065000", "145709.072500", "145711.082500", "145713.090000", "145715.097500", "145717.105000", "145719.112500", "145721.122500", "145723.130000", "145725.137500", "145727.145000", "145729.155000", "145731.162500", "145733.170000", "145735.177500", "145737.185000", "145739.195000", "145741.202500", "145743.210000", "145745.217500", "145747.225000", "145749.235000", "145751.242500", "145753.250000", "145755.257500", "145757.265000", "145759.275000", "145801.282500", "145803.290000", "145805.297500", "145807.307500", "145809.315000", "145811.322500", "145813.330000", "145815.337500", "145817.347500", "145819.355000", "145821.362500", "145823.370000", "145825.377500", "145827.387500", "145829.395000", "145831.402500", "145833.410000", "145835.420000", "145837.427500", "145839.435000", "145841.442500", "145843.450000", "145845.460000", "145847.467500", "145849.475000", "145851.482500", "145853.490000", "145855.500000", "145857.507500", "145859.515000", "145901.522500", "145903.532500", "145905.540000", "145907.547500", "145909.555000", "145911.562500", "145913.572500", "145915.580000", "145917.587500", "145919.595000", "145921.602500", "145923.612500", "145925.620000", "145927.627500", "145929.635000", "145931.642500", "145933.652500", "145935.660000", "145937.667500", "145939.675000", "145941.685000", "145943.692500", "145945.700000", "145947.707500", "145949.715000", "145951.725000", "145953.732500", "145955.740000", "145957.747500", "145959.755000", "150001.765000", "150003.772500", "150005.780000", "150007.787500", "150009.797500", "150011.805000", "150013.812500", "150015.820000", "150017.827500", "150019.837500", "150021.845000", "150023.852500", "150025.860000", "150027.867500", "150029.877500", "150031.885000", "150033.892500", "150035.900000", "150037.910000", "150039.917500", "150041.925000", "150043.932500", "150045.940000", "150047.950000", "150049.957500", "150051.965000", "150053.972500", "150055.980000", "150057.990000", "150059.997500", "150102.005000", "150104.012500", "150106.020000", "150108.030000", "150110.037500", "150112.045000", "150114.052500", "150116.062500", "150118.070000", "150120.077500", "150122.085000", "150124.092500", "150126.102500", "150128.110000", "150130.117500", "150132.125000", "150134.132500", "150136.142500", "150138.150000", "150140.157500", "150142.165000", "150144.175000", "150146.182500", "150148.190000", "150150.197500", "150152.205000", "150154.215000", "150156.222500", "150158.230000", "150200.237500", "150202.245000", "150204.255000", "150206.262500", "150208.270000", "150210.277500", "150212.287500", "150214.295000", "150216.302500", "150218.310000", "150220.317500", "150222.327500", "150224.335000", "150226.342500", "150228.350000", "150230.357500", "150232.367500", "150234.375000", "150236.382500", "150238.390000", "150240.397500", "150242.407500", "150244.415000", "150246.422500", "150248.430000", "150250.440000", "150252.447500", "150254.455000", "150256.462500", "150258.470000", "150300.480000", "150302.487500", "150304.495000", "150306.502500", "150308.510000", "150310.520000", "150312.527500", "150314.535000", "150316.542500", "150318.552500", "150320.560000", "150322.567500", "150324.575000", "150326.582500", "150328.592500", "150330.600000", "150332.607500", "150334.615000", "150336.622500", "150338.632500", "150340.640000", "150342.647500", "150344.655000", "150346.665000", "150348.672500", "150350.680000", "150352.687500", "150354.695000", "150356.705000", "150358.712500", "150400.720000", "150402.727500", "150404.735000", "150406.745000", "150408.752500", "150410.760000", "150412.767500", "150414.775000", "150416.785000", "150418.792500", "150420.800000", "150422.807500", "150424.817500", "150426.825000", "150428.832500", "150430.840000", "150432.847500", "150434.857500", "150436.865000", "150438.872500", "150440.880000", "150442.887500", "150444.897500", "150446.905000", "150448.912500", "150450.920000", "150452.930000", "150454.937500", "150456.945000", "150458.952500", "150500.960000", "150502.970000", "150504.977500", "150506.985000", "150508.992500", "150511.000000", "150513.010000", "150515.017500", "150517.025000", "150519.032500", "150521.042500", "150523.050000", "150525.057500", "150527.065000", "150529.072500", "150531.082500", "150533.090000", "150535.097500", "150537.105000", "150539.112500", "150541.122500", "150543.130000", "150545.137500", "150547.145000", "150549.155000", "150551.162500", "150553.170000", "150555.177500", "150557.185000", "150559.195000", "150601.202500", "150603.210000", "150605.217500", "150607.225000", "150609.235000", "150611.242500", "150613.250000", "150615.257500", "150617.265000", "150619.275000", "150621.282500", "150623.290000", "150625.297500", "150627.307500", "150629.315000", "150631.322500", "150633.330000", "150635.337500", "150637.347500", "150639.355000", "150641.362500", "150643.370000", "150645.377500", "150647.387500", "150649.395000", "150651.402500", "150653.410000", "150655.420000", "150657.427500", "150659.435000", "150701.442500", "150703.450000", "150705.460000", "150707.467500", "150709.475000", "150711.482500", "150713.490000", "150715.500000", "150717.507500", "150719.515000", "150721.522500", "150723.532500", "150725.540000", "150727.547500", "150729.555000", "150731.562500", "150733.572500", "150735.580000", "150737.587500", "150739.595000", "150741.602500", "150743.612500", "150745.620000", "150747.627500", "150749.635000", "150751.642500", "150753.652500", "150755.660000", "150757.667500", "150759.675000", "150801.685000", "150803.692500", "150805.700000", "150807.707500", "150809.715000", "150811.725000", "150813.732500", "150815.740000", "150817.747500", "150819.755000", "150821.765000", "150823.772500", "150825.780000", "150827.787500", "150829.797500", "150831.805000", "150833.812500", "150835.820000", "150837.827500", "150839.837500", "150841.845000", "150843.852500", "150845.860000", "150847.867500", "150849.877500", "150851.885000", "150853.892500", "150855.900000", "150857.910000", "150859.917500", "150901.925000", "150903.932500", "150905.940000", "150907.950000", "150909.957500", "150911.965000", "150913.972500", "150915.980000", "150917.990000", "150919.997500", "150922.005000", "150924.012500", "150926.020000", "150928.030000", "150930.037500", "150932.045000", "150934.052500", "150936.062500", "150938.070000", "150940.077500", "150942.085000", "150944.092500", "150946.102500", "150948.110000", "150950.117500", "150952.125000", "150954.132500", "150956.142500", "150958.150000", "151000.157500", "151002.165000", "151004.175000", "151006.182500", "151008.190000", "151010.197500", "151012.205000", "151014.215000", "151016.222500", "151018.230000", "151020.237500", "151022.245000", "151024.255000", "151026.262500", "151028.270000", "151030.277500", "151032.287500", "151034.295000", "151036.302500", "151038.310000", "151040.317500", "151042.327500", "151044.335000", "151046.342500", "151048.350000", "151050.357500", "151052.367500", "151054.375000", "151056.382500", "151058.390000", "151100.397500", "151102.407500", "151104.415000", "151106.422500", "151108.430000", "151110.440000", "151112.447500", "151114.455000", "151116.462500", "151118.470000", "151120.480000", "151122.487500", "151124.495000", "151126.502500", "151128.510000", "151130.520000", "151132.527500", "151134.535000", "151136.542500", "151138.552500", "151140.560000", "151142.567500", "151144.575000", "151146.582500", "151148.592500", "151150.600000", "151152.607500", "151154.615000", "151156.622500"],
      "ContentTime": ["145752.812000", "145752.828000", "145752.828000", "145752.828000", "145752.828000", "145752.843000", "145752.843000", "145752.843000", "145752.843000", "145752.843000", "145752.843000", "145752.843000", "145752.859000", "145752.859000", "145752.859000", "145752.859000", "145752.859000", "145752.875000", "145752.875000", "145752.875000", "145752.875000", "145752.875000", "145752.875000", "145752.890000", "145752.890000", "145752.890000", "145752.890000", "145752.906000", "145832.812000", "145832.828000", "145832.828000", "145832.828000", "145832.828000", "145832.828000", "145832.828000", "145832.843000", "145832.843000", "145832.843000", "145832.843000", "145832.843000", "145832.843000", "145832.843000", "145832.859000", "145832.859000", "145832.859000", "145832.859000", "145832.859000", "145832.875000", "145912.812000", "145912.812000", "145912.812000", "145912.812000", "145912.828000", "145912.828000", "145912.828000", "145912.828000", "145912.828000", "145912.843000", "145912.843000", "145912.843000", "145912.843000", "145912.843000", "145912.843000", "145912.843000", "145912.859000", "145912.859000", "145912.859000", "145912.859000", "145952.812000", "145952.812000", "145952.812000", "145952.812000", "145952.812000", "145952.812000", "145952.828000", "145952.828000", "145952.828000", "145952.828000", "145952.843000", "145952.843000", "145952.843000", "145952.843000", "145952.843000", "145952.843000", "145952.859000", "145952.859000", "145952.859000", "145952.859000", "150032.812000", "150032.812000", "150032.812000", "150032.812000", "150032.812000", "150032.828000", "150032.828000", "150032.828000", "150032.828000", "150032.828000", "150032.843000", "150032.843000", "150032.843000", "150032.843000", "150032.843000", "150032.843000", "150032.843000", "150032.859000", "150032.859000", "150032.859000", "150112.812000", "150112.812000", "150112.812000", "150112.812000", "150112.812000", "150112.828000", "150112.828000", "150112.828000", "150112.828000", "150112.828000", "150112.828000", "150112.828000", "150112.843000", "150112.843000", "150112.843000", "150112.843000", "150112.843000", "150112.843000", "150112.843000", "150112.859000", "150152.812000", "150152.812000", "150152.812000", "150152.812000", "150152.812000", "150152.828000", "150152.828000", "150152.828000", "150152.828000", "150152.843000", "150152.843000", "150152.843000", "150152.843000", "150152.843000", "150152.843000", "150152.843000", "150152.859000", "150152.859000", "150152.859000", "150152.859000", "150232.812000", "150232.812000", "150232.828000", "150232.828000", "150232.828000", "150232.828000", "150232.828000", "150232.828000", "150232.828000", "150232.843000", "150232.843000", "150232.843000", "150232.843000", "150232.843000", "150232.859000", "150232.859000", "150232.859000", "150232.875000", "150232.875000", "150232.875000", "150312.812000", "150312.812000", "150312.812000", "150312.812000", "150312.812000", "150312.828000", "150312.828000", "150312.828000", "150312.828000", "150312.828000", "150312.828000", "150312.828000", "150312.843000", "150312.843000", "150312.843000", "150312.843000", "150312.843000", "150312.843000", "150312.843000", "150312.859000", "150352.812000", "150352.812000", "150352.812000", "150352.812000", "150352.812000", "150352.828000", "150352.828000", "150352.828000", "150352.828000", "150352.828000", "150352.828000", "150352.828000", "150352.843000", "150352.843000", "150352.843000", "150352.843000", "150352.859000", "150352.859000", "150352.859000", "150352.859000", "150432.812000", "150432.812000", "150432.828000", "150432.828000", "150432.828000", "150432.828000", "150432.843000", "150432.843000", "150432.843000", "150432.843000", "150432.843000", "150432.843000", "150432.843000", "150432.859000", "150432.859000", "150432.859000", "150432.859000", "150432.859000", "150432.859000", "150432.859000", "150512.812000", "150512.812000", "150512.812000", "150512.828000", "150512.828000", "150512.828000", "150512.828000", "150512.828000", "150512.828000", "150512.828000", "150512.843000", "150512.843000", "150512.843000", "150512.843000", "150512.843000", "150512.843000", "150512.843000", "150512.859000", "150512.859000", "150512.859000", "150552.812000", "150552.812000", "150552.812000", "150552.812000", "150552.812000", "150552.828000", "150552.828000", "150552.828000", "150552.828000", "150552.828000", "150552.828000", "150552.828000", "150552.843000", "150552.843000", "150552.843000", "150552.843000", "150552.843000", "150552.843000", "150552.843000", "150552.859000", "150632.812000", "150632.812000", "150632.812000", "150632.812000", "150632.812000", "150632.828000", "150632.828000", "150632.828000", "150632.828000", "150632.828000", "150632.828000", "150632.828000", "150632.843000", "150632.843000", "150632.843000", "150632.843000", "150632.843000", "150632.843000", "150632.859000", "150632.859000", "150712.812000", "150712.812000", "150712.812000", "150712.812000", "150712.828000", "150712.828000", "150712.828000", "150712.828000", "150712.828000", "150712.828000", "150712.828000", "150712.843000", "150712.843000", "150712.843000", "150712.843000", "150712.843000", "150712.843000", "150712.859000", "150712.859000", "150712.859000", "150752.812000", "150752.812000", "150752.812000", "150752.828000", "150752.828000", "150752.828000", "150752.828000", "150752.828000", "150752.828000", "150752.828000", "150752.843000", "150752.843000", "150752.843000", "150752.843000", "150752.843000", "150752.843000", "150752.843000", "150752.859000", "150752.859000", "150752.859000", "150832.812000", "150832.812000", "150832.812000", "150832.828000", "150832.828000", "150832.828000", "150832.828000", "150832.828000", "150832.828000", "150832.828000", "150832.843000", "150832.843000", "150832.843000", "150832.843000", "150832.843000", "150832.843000", "150832.843000", "150832.859000", "150832.859000", "150832.859000", "150912.812000", "150912.812000", "150912.812000", "150912.828000", "150912.828000", "150912.828000", "150912.828000", "150912.828000", "150912.828000", "150912.828000", "150912.843000", "150912.843000", "150912.843000", "150912.843000", "150912.843000", "150912.843000", "150912.843000", "150912.859000", "150912.859000", "150912.859000", "150952.812000", "150952.812000", "150952.812000", "150952.828000", "150952.828000", "150952.828000", "150952.828000", "150952.828000", "150952.843000", "150952.843000", "150952.843000", "150952.843000", "150952.859000", "150952.859000", "150952.859000", "150952.859000", "150952.875000", "150952.875000", "150952.875000", "150952.875000", "151032.812000", "151032.812000", "151032.812000", "151032.828000", "151032.828000", "151032.828000", "151032.828000", "151032.828000", "151032.843000", "151032.843000", "151032.843000", "151032.843000", "151032.843000", "151032.843000", "151032.843000", "151032.859000", "151032.859000", "151032.859000", "151032.859000", "151032.875000", "151112.812000", "151112.812000", "151112.812000", "151112.828000", "151112.828000", "151112.828000", "151112.828000", "151112.828000", "151112.828000", "151112.828000", "151112.843000", "151112.843000", "151112.843000", "151112.843000", "151112.843000", "151112.843000", "151112.843000", "151112.859000", "151112.859000", "151112.859000", "151152.812000", "151152.812000", "151152.812000", "151152.828000", "151152.828000", "151152.828000", "151152.828000", "151152.843000", "151152.843000", "151152.843000", "151152.843000", "151152.859000", "151152.859000", "151152.859000", "151152.859000", "151152.875000", "151152.875000", "151152.875000", "151152.875000", "151152.875000", "151155.156000", "151155.171000"],
