{
  "AcquisitionMatrixPE": 72,
  "AcquisitionNumber": 1,
  "AcquisitionTime": "11:47:44.782500",
  "BandwidthPerPixelPhaseEncode": 28.935,
  "BaseResolution": 72,
  "CoilString": "C:HEA;HEP",
  "ConversionSoftware": "dcm2niix",
  "ConversionSoftwareVersion": "v1.0.20190410  GCC6.3.0",
  "DerivedVendorReportedEchoSpacing": 0.000480003,
  "DeviceSerialNumber": "35149",
  "DwellTime": 2.9e-06,
  "EchoTime": 0.025,
  "EffectiveEchoSpacing": 0.000480003,
  "FlipAngle": 75,
  "ImageOrientationPatientDICOM": [0.999474, 0.0180213, -0.0269574, -0.0281087, 0.895992, -0.443179],
  "ImageType": [
    "ORIGINAL",
    "PRIMARY",
    "M",
    "ND",
    "MOSAIC"
],
  "ImagingFrequency": 123.255,
  "InPlanePhaseEncodingDirectionDICOM": "COL",
  "InstitutionAddress": "Street_StreetNo_Rehovot_91E162_District_IL_ZIP",
  "InstitutionName": "Weizmann",
  "InstitutionalDepartmentName": "Department",
  "MRAcquisitionType": "2D",
  "MagneticFieldStrength": 3,
  "Manufacturer": "Siemens",
  "ManufacturersModelName": "TrioTim",
  "Modality": "MR",
  "PartialFourier": 1,
  "PatientPosition": "HFS",
  "PercentPhaseFOV": 100,
  "PhaseEncodingDirection": "j-",
  "PhaseEncodingSteps": 72,
  "PhaseResolution": 1,
  "PixelBandwidth": 2395,
  "ProcedureStepDescription": "Weizmann_Sobel",
  "ProtocolName": "exp1_30_to_AC-PC",
  "PulseSequenceDetails": "%SiemensSeq%_ep2d_pace",
  "ReceiveCoilName": "HeadMatrix",
  "ReconMatrixPE": 72,
  "RepetitionTime": 2,
  "SAR": 0.123644,
  "ScanOptions": "FS",
  "ScanningSequence": "EP",
  "SequenceName": "_epfid2d1_72",
  "SequenceVariant": "SK",
  "SeriesDescription": "exp1_30_to_AC-PC",
  "SeriesNumber": 3,
  "ShimSetting": [2310, 9624, -5598, 443, 227, -325, 47, 286],
  "SliceThickness": 3.7,
  "SliceTiming": [0.9925, 0, 1.0525, 0.0575, 1.11, 0.1175, 1.1675, 0.175, 1.2275, 0.2325, 1.285, 0.2925, 1.345, 0.35, 1.4025, 0.4075, 1.46, 0.4675, 1.52, 0.525, 1.5775, 0.585, 1.635, 0.6425, 1.695, 0.7, 1.7525, 0.76, 1.8125, 0.8175, 1.87, 0.875, 1.9275, 0.935],
  "SoftwareVersions": "syngo_MR_B17",
  "SpacingBetweenSlices": 3.7,
  "StationName": "MRC35149",
  "TaskName": "blank",
  "TotalReadoutTime": 0.0340802,
  "TxRefAmp": 283.599,
  "VendorReportedEchoSpacing": 0.00048,
  "dcmmeta_affine": [
    [-2.998422384262085, -0.08432614803314209, -0.05981775000691414, 114.2806625366211],
    [-0.05406399071216583, 2.6879770755767822, -1.641703724861145, -54.57984161376953],
    [-0.08087223768234253, 1.329537034034729, 3.315302610397339, -79.99864959716797],
    [0.0, 0.0, 0.0, 1.0]
],
  "dcmmeta_reorient_transform": [
    [0.0, -1.0, 0.0, 71.0],
    [1.0, 0.0, 0.0, 0.0],
    [0.0, 0.0, 1.0, 0.0],
    [0.0, 0.0, 0.0, 1.0]
],
  "dcmmeta_shape": [72, 72, 34, 450],
  "dcmmeta_slice_dim": 2,
  "dcmmeta_version": 0.6,
  "global": {
    "const": {
      "AcquisitionMatrix": [72, 0, 0, 72],
      "AngioFlag": "N",
      "BitsAllocated": 16,
      "BitsStored": 12,
      "Columns": 432,
      "EchoNumbers": 1,
      "EchoTime": 25.0,
      "EchoTrainLength": 1,
      "FlipAngle": 75.0,
      "HighBit": 11,
      "ImageOrientationPatient": [0.99947412652472, 0.01802133063613, -0.0269574117776, -0.0281087148431, 0.8959923347528, -0.4431790114774],
      "ImagePositionPatient": [-632.83082531146, -629.8339061669, 268.27214723381],
      "ImageType": [
        "ORIGINAL",
        "PRIMARY",
        "M",
        "ND",
        "MOSAIC"
],
      "ImagedNucleus": "1H",
      "ImagingFrequency": 123.254577,
      "InPlanePhaseEncodingDirection": "COL",
      "MRAcquisitionType": "2D",
      "MagneticFieldStrength": 3.0,
      "Manufacturer": "SIEMENS",
      "ManufacturerModelName": "TrioTim",
      "Modality": "MR",
      "NumberOfAverages": 1.0,
      "NumberOfPhaseEncodingSteps": 72,
      "PercentPhaseFieldOfView": 100.0,
      "PercentSampling": 100.0,
      "PerformedProcedureStepStartTime": "113827.078000",
      "PhotometricInterpretation": "MONOCHROME2",
      "PixelBandwidth": 2395.0,
      "PixelRepresentation": 0,
      "PixelSpacing": [3.0, 3.0],
      "ProtocolName": "exp1_30_to_AC-PC",
      "RepetitionTime": 2000.0,
      "Rows": 432,
      "SAR": 0.12364434703474,
      "SamplesPerPixel": 1,
      "ScanOptions": "FS",
      "ScanningSequence": "EP",
      "SequenceName": "*epfid2d1_72",
      "SequenceVariant": "SK",
      "SeriesDescription": "exp1_30_to_AC-PC",
      "SeriesNumber": 3,
      "SeriesTime": "114835.875000",
      "SliceLocation": -49.311301969808,
      "SliceThickness": 3.7000000476837,
      "SmallestImagePixelValue": 0,
      "SoftwareVersions": "syngo MR B17",
      "SpacingBetweenSlices": 3.7000000846474,
      "SpecificCharacterSet": "ISO_IR 100",
      "StudyID": "1",
      "StudyTime": "113827.031000",
      "TransmitCoilName": "Body",
      "VariableFlipAngleFlag": "N",
      "WindowCenterWidthExplanation": "Algo1",
      "dBdt": 0.0},
    "slices": {}
  },
  "time": {
    "samples": {
      "AcquisitionNumber": [1, 2, 3, 4, 5, 6, 7, 8, 9, 10, 11, 12, 13, 14, 15, 16, 17, 18, 19, 20, 21, 22, 23, 24, 25, 26, 27, 28, 29, 30, 31, 32, 33, 34, 35, 36, 37, 38, 39, 40, 41, 42, 43, 44, 45, 46, 47, 48, 49, 50, 51, 52, 53, 54, 55, 56, 57, 58, 59, 60, 61, 62, 63, 64, 65, 66, 67, 68, 69, 70, 71, 72, 73, 74, 75, 76, 77, 78, 79, 80, 81, 82, 83, 84, 85, 86, 87, 88, 89, 90, 91, 92, 93, 94, 95, 96, 97, 98, 99, 100, 101, 102, 103, 104, 105, 106, 107, 108, 109, 110, 111, 112, 113, 114, 115, 116, 117, 118, 119, 120, 121, 122, 123, 124, 125, 126, 127, 128, 129, 130, 131, 132, 133, 134, 135, 136, 137, 138, 139, 140, 141, 142, 143, 144, 145, 146, 147, 148, 149, 150, 151, 152, 153, 154, 155, 156, 157, 158, 159, 160, 161, 162, 163, 164, 165, 166, 167, 168, 169, 170, 171, 172, 173, 174, 175, 176, 177, 178, 179, 180, 181, 182, 183, 184, 185, 186, 187, 188, 189, 190, 191, 192, 193, 194, 195, 196, 197, 198, 199, 200, 201, 202, 203, 204, 205, 206, 207, 208, 209, 210, 211, 212, 213, 214, 215, 216, 217, 218, 219, 220, 221, 222, 223, 224, 225, 226, 227, 228, 229, 230, 231, 232, 233, 234, 235, 236, 237, 238, 239, 240, 241, 242, 243, 244, 245, 246, 247, 248, 249, 250, 251, 252, 253, 254, 255, 256, 257, 258, 259, 260, 261, 262, 263, 264, 265, 266, 267, 268, 269, 270, 271, 272, 273, 274, 275, 276, 277, 278, 279, 280, 281, 282, 283, 284, 285, 286, 287, 288, 289, 290, 291, 292, 293, 294, 295, 296, 297, 298, 299, 300, 301, 302, 303, 304, 305, 306, 307, 308, 309, 310, 311, 312, 313, 314, 315, 316, 317, 318, 319, 320, 321, 322, 323, 324, 325, 326, 327, 328, 329, 330, 331, 332, 333, 334, 335, 336, 337, 338, 339, 340, 341, 342, 343, 344, 345, 346, 347, 348, 349, 350, 351, 352, 353, 354, 355, 356, 357, 358, 359, 360, 361, 362, 363, 364, 365, 366, 367, 368, 369, 370, 371, 372, 373, 374, 375, 376, 377, 378, 379, 380, 381, 382, 383, 384, 385, 386, 387, 388, 389, 390, 391, 392, 393, 394, 395, 396, 397, 398, 399, 400, 401, 402, 403, 404, 405, 406, 407, 408, 409, 410, 411, 412, 413, 414, 415, 416, 417, 418, 419, 420, 421, 422, 423, 424, 425, 426, 427, 428, 429, 430, 431, 432, 433, 434, 435, 436, 437, 438, 439, 440, 441, 442, 443, 444, 445, 446, 447, 448, 449, 450],
      "AcquisitionTime": ["114744.782500", "114746.790000", "114748.800000", "114750.807500", "114752.815000", "114754.822500", "114756.832500", "114758.840000", "114800.847500", "114802.855000", "114804.862500", "114806.872500", "114808.880000", "114810.887500", "114812.895000", "114814.902500", "114816.912500", "114818.920000", "114820.927500", "114822.935000", "114824.942500", "114826.952500", "114828.960000", "114830.967500", "114832.975000", "114834.985000", "114836.992500", "114839.000000", "114841.007500", "114843.015000", "114845.025000", "114847.032500", "114849.040000", "114851.047500", "114853.055000", "114855.065000", "114857.072500", "114859.080000", "114901.087500", "114903.097500", "114905.105000", "114907.112500", "114909.120000", "114911.127500", "114913.137500", "114915.145000", "114917.152500", "114919.160000", "114921.167500", "114923.177500", "114925.185000", "114927.192500", "114929.200000", "114931.210000", "114933.217500", "114935.225000", "114937.232500", "114939.240000", "114941.250000", "114943.257500", "114945.265000", "114947.272500", "114949.280000", "114951.290000", "114953.297500", "114955.305000", "114957.312500", "114959.322500", "115001.330000", "115003.337500", "115005.345000", "115007.352500", "115009.362500", "115011.370000", "115013.377500", "115015.385000", "115017.392500", "115019.402500", "115021.410000", "115023.417500", "115025.425000", "115027.432500", "115029.442500", "115031.450000", "115033.457500", "115035.465000", "115037.475000", "115039.482500", "115041.490000", "115043.497500", "115045.505000", "115047.515000", "115049.522500", "115051.530000", "115053.537500", "115055.545000", "115057.555000", "115059.562500", "115101.570000", "115103.577500", "115105.587500", "115107.595000", "115109.602500", "115111.610000", "115113.617500", "115115.627500", "115117.635000", "115119.642500", "115121.650000", "115123.657500", "115125.667500", "115127.675000", "115129.682500", "115131.690000", "115133.700000", "115135.707500", "115137.715000", "115139.722500", "115141.730000", "115143.740000", "115145.747500", "115147.755000", "115149.762500", "115151.770000", "115153.780000", "115155.787500", "115157.795000", "115159.802500", "115201.810000", "115203.820000", "115205.827500", "115207.835000", "115209.842500", "115211.852500", "115213.860000", "115215.867500", "115217.875000", "115219.882500", "115221.892500", "115223.900000", "115225.907500", "115227.915000", "115229.922500", "115231.932500", "115233.940000", "115235.947500", "115237.955000", "115239.965000", "115241.972500", "115243.980000", "115245.987500", "115247.995000", "115250.005000", "115252.012500", "115254.020000", "115256.027500", "115258.035000", "115300.045000", "115302.052500", "115304.060000", "115306.067500", "115308.077500", "115310.085000", "115312.092500", "115314.100000", "115316.107500", "115318.117500", "115320.125000", "115322.132500", "115324.140000", "115326.147500", "115328.157500", "115330.165000", "115332.172500", "115334.180000", "115336.187500", "115338.197500", "115340.205000", "115342.212500", "115344.220000", "115346.230000", "115348.237500", "115350.245000", "115352.252500", "115354.260000", "115356.270000", "115358.277500", "115400.285000", "115402.292500", "115404.300000", "115406.310000", "115408.317500", "115410.325000", "115412.332500", "115414.342500", "115416.350000", "115418.357500", "115420.365000", "115422.372500", "115424.382500", "115426.390000", "115428.397500", "115430.405000", "115432.412500", "115434.422500", "115436.430000", "115438.437500", "115440.445000", "115442.455000", "115444.462500", "115446.470000", "115448.477500", "115450.485000", "115452.495000", "115454.502500", "115456.510000", "115458.517500", "115500.525000", "115502.535000", "115504.542500", "115506.550000", "115508.557500", "115510.565000", "115512.575000", "115514.582500", "115516.590000", "115518.597500", "115520.607500", "115522.615000", "115524.622500", "115526.630000", "115528.637500", "115530.647500", "115532.655000", "115534.662500", "115536.670000", "115538.677500", "115540.687500", "115542.695000", "115544.702500", "115546.710000", "115548.720000", "115550.727500", "115552.735000", "115554.742500", "115556.750000", "115558.760000", "115600.767500", "115602.775000", "115604.782500", "115606.790000", "115608.800000", "115610.807500", "115612.815000", "115614.822500", "115616.832500", "115618.840000", "115620.847500", "115622.855000", "115624.862500", "115626.872500", "115628.880000", "115630.887500", "115632.895000", "115634.902500", "115636.912500", "115638.920000", "115640.927500", "115642.935000", "115644.942500", "115646.952500", "115648.960000", "115650.967500", "115652.975000", "115654.985000", "115656.992500", "115659.000000", "115701.007500", "115703.015000", "115705.025000", "115707.032500", "115709.040000", "115711.047500", "115713.055000", "115715.065000", "115717.072500", "115719.080000", "115721.087500", "115723.097500", "115725.105000", "115727.112500", "115729.120000", "115731.127500", "115733.137500", "115735.145000", "115737.152500", "115739.160000", "115741.167500", "115743.177500", "115745.185000", "115747.192500", "115749.200000", "115751.210000", "115753.217500", "115755.225000", "115757.232500", "115759.240000", "115801.250000", "115803.257500", "115805.265000", "115807.272500", "115809.280000", "115811.290000", "115813.297500", "115815.305000", "115817.312500", "115819.322500", "115821.330000", "115823.337500", "115825.345000", "115827.352500", "115829.362500", "115831.370000", "115833.377500", "115835.385000", "115837.392500", "115839.402500", "115841.410000", "115843.417500", "115845.425000", "115847.432500", "115849.442500", "115851.450000", "115853.457500", "115855.465000", "115857.475000", "115859.482500", "115901.490000", "115903.497500", "115905.505000", "115907.515000", "115909.522500", "115911.530000", "115913.537500", "115915.545000", "115917.555000", "115919.562500", "115921.570000", "115923.577500", "115925.587500", "115927.595000", "115929.602500", "115931.610000", "115933.617500", "115935.627500", "115937.635000", "115939.642500", "115941.650000", "115943.657500", "115945.667500", "115947.675000", "115949.682500", "115951.690000", "115953.700000", "115955.707500", "115957.715000", "115959.722500", "120001.730000", "120003.740000", "120005.747500", "120007.755000", "120009.762500", "120011.770000", "120013.780000", "120015.787500", "120017.795000", "120019.802500", "120021.810000", "120023.820000", "120025.827500", "120027.835000", "120029.842500", "120031.852500", "120033.860000", "120035.867500", "120037.875000", "120039.882500", "120041.892500", "120043.900000", "120045.907500", "120047.915000", "120049.922500", "120051.932500", "120053.940000", "120055.947500", "120057.955000", "120059.965000", "120101.972500", "120103.980000", "120105.987500", "120107.995000", "120110.005000", "120112.012500", "120114.020000", "120116.027500", "120118.035000", "120120.045000", "120122.052500", "120124.060000", "120126.067500", "120128.077500", "120130.085000", "120132.092500", "120134.100000", "120136.107500", "120138.117500", "120140.125000", "120142.132500", "120144.140000", "120146.147500", "120148.157500", "120150.165000", "120152.172500", "120154.180000", "120156.187500", "120158.197500", "120200.205000", "120202.212500", "120204.220000", "120206.230000", "120208.237500", "120210.245000", "120212.252500", "120214.260000", "120216.270000", "120218.277500", "120220.285000", "120222.292500", "120224.300000", "120226.310000", "120228.317500", "120230.325000", "120232.332500", "120234.342500", "120236.350000", "120238.357500", "120240.365000", "120242.372500", "120244.382500", "120246.390000"],
      "ContentTime": ["114835.875000", "114835.875000", "114835.875000", "114835.890000", "114835.890000", "114835.890000", "114835.890000", "114835.890000", "114835.890000", "114835.890000", "114835.906000", "114835.906000", "114835.906000", "114835.906000", "114835.906000", "114835.906000", "114835.921000", "114835.921000", "114835.921000", "114835.921000", "114835.921000", "114835.921000", "114835.937000", "114835.937000", "114835.937000", "114915.859000", "114915.875000", "114915.875000", "114915.875000", "114915.875000", "114915.875000", "114915.890000", "114915.890000", "114915.890000", "114915.890000", "114915.890000", "114915.890000", "114915.890000", "114915.906000", "114915.906000", "114915.906000", "114915.906000", "114915.906000", "114915.906000", "114915.921000", "114955.859000", "114955.859000", "114955.875000", "114955.875000", "114955.875000", "114955.875000", "114955.875000", "114955.875000", "114955.875000", "114955.890000", "114955.890000", "114955.890000", "114955.890000", "114955.890000", "114955.890000", "114955.890000", "114955.890000", "114955.906000", "114955.906000", "114955.906000", "115035.859000", "115035.859000", "115035.875000", "115035.875000", "115035.875000", "115035.875000", "115035.875000", "115035.875000", "115035.875000", "115035.890000", "115035.890000", "115035.890000", "115035.890000", "115035.890000", "115035.890000", "115035.890000", "115035.890000", "115035.906000", "115035.906000", "115035.906000", "115115.859000", "115115.859000", "115115.875000", "115115.875000", "115115.875000", "115115.875000", "115115.875000", "115115.875000", "115115.875000", "115115.890000", "115115.890000", "115115.890000", "115115.890000", "115115.890000", "115115.890000", "115115.890000", "115115.890000", "115115.906000", "115115.906000", "115115.906000", "115155.859000", "115155.859000", "115155.875000", "115155.875000", "115155.875000", "115155.875000", "115155.875000", "115155.890000", "115155.890000", "115155.890000", "115155.890000", "115155.890000", "115155.890000", "115155.906000", "115155.906000", "115155.906000", "115155.906000", "115155.906000", "115155.906000", "115155.906000", "115235.859000", "115235.859000", "115235.875000", "115235.875000", "115235.875000", "115235.875000", "115235.875000", "115235.875000", "115235.875000", "115235.890000", "115235.890000", "115235.890000", "115235.890000", "115235.890000", "115235.890000", "115235.890000", "115235.906000", "115235.906000", "115235.906000", "115235.906000", "115315.859000", "115315.875000", "115315.875000", "115315.875000", "115315.890000", "115315.890000", "115315.890000", "115315.890000", "115315.890000", "115315.890000", "115315.890000", "115315.906000", "115315.906000", "115315.906000", "115315.906000", "115315.906000", "115315.906000", "115315.906000", "115315.906000", "115315.921000", "115355.859000", "115355.859000", "115355.875000", "115355.875000", "115355.875000", "115355.875000", "115355.875000", "115355.875000", "115355.875000", "115355.890000", "115355.890000", "115355.890000", "115355.890000", "115355.890000", "115355.890000", "115355.906000", "115355.906000", "115355.906000", "115355.921000", "115355.921000", "115435.859000", "115435.859000", "115435.875000", "115435.875000", "115435.875000", "115435.875000", "115435.875000", "115435.875000", "115435.875000", "115435.890000", "115435.890000", "115435.890000", "115435.890000", "115435.890000", "115435.906000", "115435.906000", "115435.906000", "115435.906000", "115435.906000", "115435.906000", "115515.875000", "115515.875000", "115515.875000", "115515.875000", "115515.875000", "115515.875000", "115515.875000", "115515.890000", "115515.890000", "115515.890000", "115515.890000", "115515.890000", "115515.890000", "115515.890000", "115515.890000", "115515.906000", "115515.906000", "115515.906000", "115515.906000", "115515.906000", "115555.875000", "115555.875000", "115555.875000", "115555.875000", "115555.875000", "115555.875000", "115555.875000", "115555.890000", "115555.890000", "115555.890000", "115555.890000", "115555.890000", "115555.890000", "115555.890000", "115555.906000", "115555.906000", "115555.906000", "115555.906000", "115555.906000", "115555.906000", "115635.875000", "115635.875000", "115635.875000", "115635.875000", "115635.875000", "115635.875000", "115635.890000", "115635.890000", "115635.890000", "115635.890000", "115635.890000", "115635.890000", "115635.890000", "115635.906000", "115635.906000", "115635.906000", "115635.906000", "115635.921000", "115635.921000", "115635.921000", "115715.859000", "115715.875000", "115715.875000", "115715.875000", "115715.875000", "115715.875000", "115715.875000", "115715.875000", "115715.890000", "115715.890000", "115715.890000", "115715.890000", "115715.890000", "115715.890000", "115715.890000", "115715.906000", "115715.906000", "115715.906000", "115715.906000", "115715.906000", "115755.875000", "115755.875000", "115755.875000", "115755.875000", "115755.875000", "115755.875000", "115755.890000", "115755.890000", "115755.890000", "115755.890000", "115755.890000", "115755.890000", "115755.906000", "115755.906000", "115755.921000", "115755.921000", "115755.921000", "115755.921000", "115755.921000", "115755.937000", "115835.875000", "115835.875000", "115835.875000", "115835.875000", "115835.875000", "115835.890000", "115835.890000", "115835.890000", "115835.890000", "115835.890000", "115835.890000", "115835.890000", "115835.906000", "115835.906000", "115835.906000", "115835.906000", "115835.906000", "115835.906000", "115835.906000", "115835.921000", "115915.875000", "115915.875000", "115915.875000", "115915.875000", "115915.875000", "115915.875000", "115915.875000", "115915.875000", "115915.890000", "115915.890000", "115915.890000", "115915.890000", "115915.906000", "115915.906000", "115915.906000", "115915.906000", "115915.906000", "115915.906000", "115915.921000", "115915.921000", "115955.875000", "115955.875000", "115955.875000", "115955.875000", "115955.875000", "115955.875000", "115955.875000", "115955.890000", "115955.890000", "115955.890000", "115955.890000", "115955.890000", "115955.890000", "115955.890000", "115955.890000", "115955.906000", "115955.906000", "115955.906000", "115955.906000", "115955.906000", "120035.875000", "120035.875000", "120035.875000", "120035.875000", "120035.890000", "120035.890000", "120035.890000", "120035.890000", "120035.890000", "120035.890000", "120035.890000", "120035.906000", "120035.906000", "120035.906000", "120035.906000", "120035.906000", "120035.906000", "120035.906000", "120035.921000", "120035.921000", "120115.875000", "120115.875000", "120115.875000", "120115.875000", "120115.875000", "120115.875000", "120115.875000", "120115.890000", "120115.890000", "120115.890000", "120115.890000", "120115.890000", "120115.890000", "120115.890000", "120115.890000", "120115.906000", "120115.906000", "120115.906000", "120115.906000", "120115.906000", "120155.875000", "120155.875000", "120155.875000", "120155.875000", "120155.875000", "120155.875000", "120155.875000", "120155.890000", "120155.890000", "120155.890000", "120155.890000", "120155.890000", "120155.890000", "120155.890000", "120155.906000", "120155.906000", "120155.906000", "120155.906000", "120155.906000", "120155.906000", "120235.875000", "120235.875000", "120235.875000", "120235.875000", "120235.890000", "120235.890000", "120235.890000", "120235.890000", "120235.890000", "120235.890000", "120235.906000", "120235.906000", "120235.906000", "120235.906000", "120235.906000", "120235.906000", "120235.906000", "120235.921000", "120235.921000", "120235.921000", "120244.015000", "120244.015000", "120244.015000", "120244.031000", "120244.031000"],
