{
  "AcquisitionMatrixPE": 72,
  "AcquisitionNumber": 1,
  "AcquisitionTime": "09:40:46.695000",
  "BandwidthPerPixelPhaseEncode": 28.935,
  "BaseResolution": 72,
  "CoilString": "C:HEA;HEP",
  "ConversionSoftware": "dcm2niix",
  "ConversionSoftwareVersion": "v1.0.20190410  GCC6.3.0",
  "DerivedVendorReportedEchoSpacing": 0.000480003,
  "DeviceSerialNumber": "35149",
  "DwellTime": 2.9e-06,
  "EchoTime": 0.025,
  "EffectiveEchoSpacing": 0.000480003,
  "FlipAngle": 75,
  "ImageOrientationPatientDICOM": [0.996104, 0.0616395, -0.0630666, -0.0814479, 0.917223, -0.389959],
  "ImageType": [
    "ORIGINAL",
    "PRIMARY",
    "M",
    "ND",
    "MOSAIC"
],
  "ImagingFrequency": 123.255,
  "InPlanePhaseEncodingDirectionDICOM": "COL",
  "InstitutionAddress": "Street_StreetNo_Rehovot_91E162_District_IL_ZIP",
  "InstitutionName": "Weizmann",
  "InstitutionalDepartmentName": "Department",
  "MRAcquisitionType": "2D",
  "MagneticFieldStrength": 3,
  "Manufacturer": "Siemens",
  "ManufacturersModelName": "TrioTim",
  "Modality": "MR",
  "PartialFourier": 1,
  "PatientPosition": "HFS",
  "PercentPhaseFOV": 100,
  "PhaseEncodingDirection": "j-",
  "PhaseEncodingSteps": 72,
  "PhaseResolution": 1,
  "PixelBandwidth": 2395,
  "ProcedureStepDescription": "Weizmann_Sobel",
  "ProtocolName": "exp1_30_to_AC-PC",
  "PulseSequenceDetails": "%SiemensSeq%_ep2d_pace",
  "ReceiveCoilName": "HeadMatrix",
  "ReconMatrixPE": 72,
  "RepetitionTime": 2,
  "SAR": 0.151424,
  "ScanOptions": "FS",
  "ScanningSequence": "EP",
  "SequenceName": "_epfid2d1_72",
  "SequenceVariant": "SK",
  "SeriesDescription": "exp1_30_to_AC-PC",
  "SeriesNumber": 3,
  "ShimSetting": [2152, 9561, -5362, 1028, -178, -70, -412, 279],
  "SliceThickness": 3.7,
  "SliceTiming": [0.995, 0, 1.0525, 0.06, 1.11, 0.1175, 1.17, 0.175, 1.2275, 0.235, 1.2875, 0.2925, 1.345, 0.35, 1.4025, 0.41, 1.4625, 0.4675, 1.52, 0.5275, 1.5775, 0.585, 1.6375, 0.6425, 1.695, 0.7025, 1.755, 0.76, 1.8125, 0.82, 1.87, 0.8775, 1.93, 0.935],
  "SoftwareVersions": "syngo_MR_B17",
  "SpacingBetweenSlices": 3.7,
  "StationName": "MRC35149",
  "TaskName": "bodyodor",
  "TotalReadoutTime": 0.0340802,
  "TxRefAmp": 276.454,
  "VendorReportedEchoSpacing": 0.00048,
  "dcmmeta_affine": [
    [-2.988312005996704, -0.24434363842010498, -0.1250942349433899, 116.1603012084961],
    [-0.1849185973405838, 2.7516698837280273, -1.4562307596206665, -48.29824447631836],
    [-0.18919967114925385, 1.1698755025863647, 3.3990797996520996, -52.15886688232422],
    [0.0, 0.0, 0.0, 1.0]
],
  "dcmmeta_reorient_transform": [
    [0.0, -1.0, 0.0, 71.0],
    [1.0, 0.0, 0.0, 0.0],
    [0.0, 0.0, 1.0, 0.0],
    [0.0, 0.0, 0.0, 1.0]
],
  "dcmmeta_shape": [72, 72, 34, 442],
  "dcmmeta_slice_dim": 2,
  "dcmmeta_version": 0.6,
  "global": {
    "const": {
      "AcquisitionMatrix": [72, 0, 0, 72],
      "AngioFlag": "N",
      "BitsAllocated": 16,
      "BitsStored": 12,
      "Columns": 432,
      "EchoNumbers": 1,
      "EchoTime": 25.0,
      "EchoTrainLength": 1,
      "FlipAngle": 75.0,
      "HighBit": 11,
      "ImageOrientationPatient": [0.99610399931291, 0.06163953374511, -0.0630665555783, -0.0814478784994, 0.91722330953137, -0.3899585151529],
      "ImagePositionPatient": [-592.7262059551, -675.65625659843, 275.535835586],
      "ImageType": [
        "ORIGINAL",
        "PRIMARY",
        "M",
        "ND",
        "MOSAIC"
],
      "ImagedNucleus": "1H",
      "ImagingFrequency": 123.254998,
      "InPlanePhaseEncodingDirection": "COL",
      "MRAcquisitionType": "2D",
      "MagneticFieldStrength": 3.0,
      "Manufacturer": "SIEMENS",
      "ManufacturerModelName": "TrioTim",
      "Modality": "MR",
      "NumberOfAverages": 1.0,
      "NumberOfPhaseEncodingSteps": 72,
      "PercentPhaseFieldOfView": 100.0,
      "PercentSampling": 100.0,
      "PerformedProcedureStepStartTime": "090522.718000",
      "PhotometricInterpretation": "MONOCHROME2",
      "PixelBandwidth": 2395.0,
      "PixelRepresentation": 0,
      "PixelSpacing": [3.0, 3.0],
      "ProtocolName": "exp1_30_to_AC-PC",
      "RepetitionTime": 2000.0,
      "Rows": 432,
      "SAR": 0.1514238035107,
      "SamplesPerPixel": 1,
      "ScanOptions": "FS",
      "ScanningSequence": "EP",
      "SequenceName": "*epfid2d1_72",
      "SequenceVariant": "SK",
      "SeriesDescription": "exp1_30_to_AC-PC",
      "SeriesNumber": 3,
      "SeriesTime": "094134.375000",
      "SliceLocation": -32.835066571683,
      "SliceThickness": 3.7000000476837,
      "SmallestImagePixelValue": 0,
      "SoftwareVersions": "syngo MR B17",
      "SpacingBetweenSlices": 3.7000000753809,
      "SpecificCharacterSet": "ISO_IR 100",
      "StudyID": "2",
      "StudyTime": "090522.671000",
      "TransmitCoilName": "Body",
      "VariableFlipAngleFlag": "N",
      "WindowCenterWidthExplanation": "Algo1",
      "dBdt": 0.0},
    "slices": {}
  },
  "time": {
    "samples": {
      "AcquisitionNumber": [1, 2, 3, 4, 5, 6, 7, 8, 9, 10, 11, 12, 13, 14, 15, 16, 17, 18, 19, 20, 21, 22, 23, 24, 25, 26, 27, 28, 29, 30, 31, 32, 33, 34, 35, 36, 37, 38, 39, 40, 41, 42, 43, 44, 45, 46, 47, 48, 49, 50, 51, 52, 53, 54, 55, 56, 57, 58, 59, 60, 61, 62, 63, 64, 65, 66, 67, 68, 69, 70, 71, 72, 73, 74, 75, 76, 77, 78, 79, 80, 81, 82, 83, 84, 85, 86, 87, 88, 89, 90, 91, 92, 93, 94, 95, 96, 97, 98, 99, 100, 101, 102, 103, 104, 105, 106, 107, 108, 109, 110, 111, 112, 113, 114, 115, 116, 117, 118, 119, 120, 121, 122, 123, 124, 125, 126, 127, 128, 129, 130, 131, 132, 133, 134, 135, 136, 137, 138, 139, 140, 141, 142, 143, 144, 145, 146, 147, 148, 149, 150, 151, 152, 153, 154, 155, 156, 157, 158, 159, 160, 161, 162, 163, 164, 165, 166, 167, 168, 169, 170, 171, 172, 173, 174, 175, 176, 177, 178, 179, 180, 181, 182, 183, 184, 185, 186, 187, 188, 189, 190, 191, 192, 193, 194, 195, 196, 197, 198, 199, 200, 201, 202, 203, 204, 205, 206, 207, 208, 209, 210, 211, 212, 213, 214, 215, 216, 217, 218, 219, 220, 221, 222, 223, 224, 225, 226, 227, 228, 229, 230, 231, 232, 233, 234, 235, 236, 237, 238, 239, 240, 241, 242, 243, 244, 245, 246, 247, 248, 249, 250, 251, 252, 253, 254, 255, 256, 257, 258, 259, 260, 261, 262, 263, 264, 265, 266, 267, 268, 269, 270, 271, 272, 273, 274, 275, 276, 277, 278, 279, 280, 281, 282, 283, 284, 285, 286, 287, 288, 289, 290, 291, 292, 293, 294, 295, 296, 297, 298, 299, 300, 301, 302, 303, 304, 305, 306, 307, 308, 309, 310, 311, 312, 313, 314, 315, 316, 317, 318, 319, 320, 321, 322, 323, 324, 325, 326, 327, 328, 329, 330, 331, 332, 333, 334, 335, 336, 337, 338, 339, 340, 341, 342, 343, 344, 345, 346, 347, 348, 349, 350, 351, 352, 353, 354, 355, 356, 357, 358, 359, 360, 361, 362, 363, 364, 365, 366, 367, 368, 369, 370, 371, 372, 373, 374, 375, 376, 377, 378, 379, 380, 381, 382, 383, 384, 385, 386, 387, 388, 389, 390, 391, 392, 393, 394, 395, 396, 397, 398, 399, 400, 401, 402, 403, 404, 405, 406, 407, 408, 409, 410, 411, 412, 413, 414, 415, 416, 417, 418, 419, 420, 421, 422, 423, 424, 425, 426, 427, 428, 429, 430, 431, 432, 433, 434, 435, 436, 437, 438, 439, 440, 441, 442],
      "AcquisitionTime": ["094046.695000", "094048.702500", "094050.710000", "094052.717500", "094054.725000", "094056.735000", "094058.742500", "094100.750000", "094102.757500", "094104.767500", "094106.775000", "094108.782500", "094110.790000", "094112.797500", "094114.807500", "094116.815000", "094118.822500", "094120.830000", "094122.837500", "094124.847500", "094126.855000", "094128.862500", "094130.870000", "094132.880000", "094134.887500", "094136.895000", "094138.902500", "094140.910000", "094142.920000", "094144.927500", "094146.935000", "094148.942500", "094150.950000", "094152.960000", "094154.967500", "094156.975000", "094158.982500", "094200.992500", "094203.000000", "094205.007500", "094207.015000", "094209.022500", "094211.032500", "094213.040000", "094215.047500", "094217.055000", "094219.062500", "094221.072500", "094223.080000", "094225.087500", "094227.095000", "094229.105000", "094231.112500", "094233.120000", "094235.127500", "094237.135000", "094239.145000", "094241.152500", "094243.160000", "094245.167500", "094247.175000", "094249.185000", "094251.192500", "094253.200000", "094255.207500", "094257.215000", "094259.225000", "094301.232500", "094303.240000", "094305.247500", "094307.257500", "094309.265000", "094311.272500", "094313.280000", "094315.287500", "094317.297500", "094319.305000", "094321.312500", "094323.320000", "094325.327500", "094327.337500", "094329.345000", "094331.352500", "094333.360000", "094335.370000", "094337.377500", "094339.385000", "094341.392500", "094343.400000", "094345.410000", "094347.417500", "094349.425000", "094351.432500", "094353.440000", "094355.450000", "094357.457500", "094359.465000", "094401.472500", "094403.482500", "094405.490000", "094407.497500", "094409.505000", "094411.512500", "094413.522500", "094415.530000", "094417.537500", "094419.545000", "094421.552500", "094423.562500", "094425.570000", "094427.577500", "094429.585000", "094431.592500", "094433.602500", "094435.610000", "094437.617500", "094439.625000", "094441.635000", "094443.642500", "094445.650000", "094447.657500", "094449.665000", "094451.675000", "094453.682500", "094455.690000", "094457.697500", "094459.705000", "094501.715000", "094503.722500", "094505.730000", "094507.737500", "094509.747500", "094511.755000", "094513.762500", "094515.770000", "094517.777500", "094519.787500", "094521.795000", "094523.802500", "094525.810000", "094527.817500", "094529.827500", "094531.835000", "094533.842500", "094535.850000", "094537.860000", "094539.867500", "094541.875000", "094543.882500", "094545.890000", "094547.900000", "094549.907500", "094551.915000", "094553.922500", "094555.930000", "094557.940000", "094559.947500", "094601.955000", "094603.962500", "094605.970000", "094607.980000", "094609.987500", "094611.995000", "094614.002500", "094616.012500", "094618.020000", "094620.027500", "094622.035000", "094624.042500", "094626.052500", "094628.060000", "094630.067500", "094632.075000", "094634.082500", "094636.092500", "094638.100000", "094640.107500", "094642.115000", "094644.125000", "094646.132500", "094648.140000", "094650.147500", "094652.155000", "094654.165000", "094656.172500", "094658.180000", "094700.187500", "094702.195000", "094704.205000", "094706.212500", "094708.220000", "094710.227500", "094712.237500", "094714.245000", "094716.252500", "094718.260000", "094720.267500", "094722.277500", "094724.285000", "094726.292500", "094728.300000", "094730.307500", "094732.317500", "094734.325000", "094736.332500", "094738.340000", "094740.347500", "094742.357500", "094744.365000", "094746.372500", "094748.380000", "094750.390000", "094752.397500", "094754.405000", "094756.412500", "094758.420000", "094800.430000", "094802.437500", "094804.445000", "094806.452500", "094808.460000", "094810.470000", "094812.477500", "094814.485000", "094816.492500", "094818.502500", "094820.510000", "094822.517500", "094824.525000", "094826.532500", "094828.542500", "094830.550000", "094832.557500", "094834.565000", "094836.572500", "094838.582500", "094840.590000", "094842.597500", "094844.605000", "094846.615000", "094848.622500", "094850.630000", "094852.637500", "094854.645000", "094856.655000", "094858.662500", "094900.670000", "094902.677500", "094904.685000", "094906.695000", "094908.702500", "094910.710000", "094912.717500", "094914.725000", "094916.735000", "094918.742500", "094920.750000", "094922.757500", "094924.767500", "094926.775000", "094928.782500", "094930.790000", "094932.797500", "094934.807500", "094936.815000", "094938.822500", "094940.830000", "094942.837500", "094944.847500", "094946.855000", "094948.862500", "094950.870000", "094952.880000", "094954.887500", "094956.895000", "094958.902500", "095000.910000", "095002.920000", "095004.927500", "095006.935000", "095008.942500", "095010.950000", "095012.960000", "095014.967500", "095016.975000", "095018.982500", "095020.992500", "095023.000000", "095025.007500", "095027.015000", "095029.022500", "095031.032500", "095033.040000", "095035.047500", "095037.055000", "095039.062500", "095041.072500", "095043.080000", "095045.087500", "095047.095000", "095049.105000", "095051.112500", "095053.120000", "095055.127500", "095057.135000", "095059.145000", "095101.152500", "095103.160000", "095105.167500", "095107.175000", "095109.185000", "095111.192500", "095113.200000", "095115.207500", "095117.215000", "095119.225000", "095121.232500", "095123.240000", "095125.247500", "095127.257500", "095129.265000", "095131.272500", "095133.280000", "095135.287500", "095137.297500", "095139.305000", "095141.312500", "095143.320000", "095145.327500", "095147.337500", "095149.345000", "095151.352500", "095153.360000", "095155.370000", "095157.377500", "095159.385000", "095201.392500", "095203.400000", "095205.410000", "095207.417500", "095209.425000", "095211.432500", "095213.440000", "095215.450000", "095217.457500", "095219.465000", "095221.472500", "095223.482500", "095225.490000", "095227.497500", "095229.505000", "095231.512500", "095233.522500", "095235.530000", "095237.537500", "095239.545000", "095241.552500", "095243.562500", "095245.570000", "095247.577500", "095249.585000", "095251.592500", "095253.602500", "095255.610000", "095257.617500", "095259.625000", "095301.635000", "095303.642500", "095305.650000", "095307.657500", "095309.665000", "095311.675000", "095313.682500", "095315.690000", "095317.697500", "095319.705000", "095321.715000", "095323.722500", "095325.730000", "095327.737500", "095329.747500", "095331.755000", "095333.762500", "095335.770000", "095337.777500", "095339.787500", "095341.795000", "095343.802500", "095345.810000", "095347.817500", "095349.827500", "095351.835000", "095353.842500", "095355.850000", "095357.860000", "095359.867500", "095401.875000", "095403.882500", "095405.890000", "095407.900000", "095409.907500", "095411.915000", "095413.922500", "095415.930000", "095417.940000", "095419.947500", "095421.955000", "095423.962500", "095425.970000", "095427.980000", "095429.987500", "095431.995000", "095434.002500", "095436.012500", "095438.020000", "095440.027500", "095442.035000", "095444.042500", "095446.052500", "095448.060000", "095450.067500", "095452.075000", "095454.082500", "095456.092500", "095458.100000", "095500.107500", "095502.115000", "095504.125000", "095506.132500", "095508.140000", "095510.147500", "095512.155000", "095514.165000", "095516.172500", "095518.180000", "095520.187500", "095522.195000", "095524.205000", "095526.212500", "095528.220000", "095530.227500", "095532.237500"],
      "ContentTime": ["094134.390000", "094134.390000", "094134.390000", "094134.390000", "094134.406000", "094134.406000", "094134.406000", "094134.406000", "094134.406000", "094134.406000", "094134.406000", "094134.406000", "094134.421000", "094134.421000", "094134.421000", "094134.421000", "094134.421000", "094134.421000", "094134.421000", "094134.437000", "094134.437000", "094134.437000", "094134.437000", "094214.375000", "094214.375000", "094214.390000", "094214.390000", "094214.390000", "094214.390000", "094214.390000", "094214.390000", "094214.390000", "094214.406000", "094214.406000", "094214.406000", "094214.406000", "094214.406000", "094214.406000", "094214.406000", "094214.421000", "094214.421000", "094214.421000", "094214.421000", "094234.375000", "094234.375000", "094234.390000", "094234.390000", "094234.390000", "094234.390000", "094234.390000", "094234.390000", "094234.390000", "094234.406000", "094314.375000", "094314.375000", "094314.390000", "094314.390000", "094314.390000", "094314.390000", "094314.406000", "094314.406000", "094314.406000", "094314.406000", "094314.406000", "094314.406000", "094314.406000", "094314.421000", "094314.421000", "094314.421000", "094314.421000", "094314.421000", "094314.437000", "094314.437000", "094354.375000", "094354.375000", "094354.390000", "094354.390000", "094354.390000", "094354.390000", "094354.390000", "094354.390000", "094354.390000", "094354.406000", "094354.406000", "094354.421000", "094354.421000", "094354.421000", "094354.421000", "094354.421000", "094354.437000", "094354.437000", "094354.437000", "094354.437000", "094434.375000", "094434.375000", "094434.390000", "094434.390000", "094434.390000", "094434.406000", "094434.406000", "094434.406000", "094434.406000", "094434.406000", "094434.406000", "094434.406000", "094434.421000", "094434.421000", "094434.421000", "094434.421000", "094434.421000", "094434.437000", "094434.437000", "094434.437000", "094514.375000", "094514.375000", "094514.390000", "094514.390000", "094514.390000", "094514.390000", "094514.390000", "094514.406000", "094514.406000", "094514.406000", "094514.406000", "094514.406000", "094514.406000", "094514.406000", "094514.421000", "094514.421000", "094514.421000", "094514.421000", "094514.421000", "094514.421000", "094554.375000", "094554.375000", "094554.390000", "094554.390000", "094554.390000", "094554.390000", "094554.390000", "094554.390000", "094554.390000", "094554.406000", "094554.406000", "094554.406000", "094554.406000", "094554.406000", "094554.406000", "094554.406000", "094554.421000", "094554.421000", "094554.421000", "094554.421000", "094634.375000", "094634.375000", "094634.390000", "094634.390000", "094634.390000", "094634.390000", "094634.390000", "094634.390000", "094634.406000", "094634.406000", "094634.406000", "094634.406000", "094634.406000", "094634.406000", "094634.421000", "094634.421000", "094634.421000", "094634.421000", "094634.421000", "094634.421000", "094714.375000", "094714.375000", "094714.390000", "094714.390000", "094714.390000", "094714.390000", "094714.390000", "094714.390000", "094714.390000", "094714.406000", "094714.406000", "094714.406000", "094714.406000", "094714.406000", "094714.406000", "094714.406000", "094714.421000", "094714.421000", "094714.421000", "094714.421000", "094754.375000", "094754.375000", "094754.390000", "094754.390000", "094754.390000", "094754.390000", "094754.390000", "094754.390000", "094754.406000", "094754.406000", "094754.406000", "094754.406000", "094754.406000", "094754.406000", "094754.406000", "094754.421000", "094754.421000", "094754.421000", "094754.421000", "094754.421000", "094834.375000", "094834.375000", "094834.390000", "094834.390000", "094834.390000", "094834.390000", "094834.406000", "094834.406000", "094834.406000", "094834.406000", "094834.406000", "094834.406000", "094834.421000", "094834.421000", "094834.421000", "094834.437000", "094834.437000", "094834.437000", "094834.437000", "094834.437000", "094914.375000", "094914.375000", "094914.390000", "094914.390000", "094914.406000", "094914.406000", "094914.406000", "094914.406000", "094914.406000", "094914.421000", "094914.421000", "094914.421000", "094914.421000", "094914.421000", "094914.437000", "094914.437000", "094914.437000", "094914.437000", "094914.437000", "094914.453000", "094954.375000", "094954.375000", "094954.390000", "094954.390000", "094954.390000", "094954.390000", "094954.390000", "094954.390000", "094954.390000", "094954.406000", "094954.406000", "094954.406000", "094954.406000", "094954.406000", "094954.406000", "094954.421000", "094954.421000", "094954.421000", "094954.421000", "094954.421000", "095034.375000", "095034.375000", "095034.390000", "095034.390000", "095034.406000", "095034.406000", "095034.406000", "095034.406000", "095034.406000", "095034.406000", "095034.406000", "095034.421000", "095034.421000", "095034.421000", "095034.421000", "095034.421000", "095034.421000", "095034.421000", "095034.437000", "095034.437000", "095114.375000", "095114.390000", "095114.390000", "095114.390000", "095114.390000", "095114.390000", "095114.390000", "095114.406000", "095114.406000", "095114.406000", "095114.406000", "095114.421000", "095114.421000", "095114.421000", "095114.421000", "095114.421000", "095114.421000", "095114.421000", "095114.437000", "095114.437000", "095154.390000", "095154.390000", "095154.390000", "095154.390000", "095154.390000", "095154.390000", "095154.406000", "095154.406000", "095154.406000", "095154.406000", "095154.406000", "095154.421000", "095154.421000", "095154.437000", "095154.437000", "095154.437000", "095154.437000", "095154.453000", "095154.453000", "095154.453000", "095234.375000", "095234.375000", "095234.390000", "095234.390000", "095234.390000", "095234.390000", "095234.390000", "095234.390000", "095234.406000", "095234.406000", "095234.406000", "095234.406000", "095234.406000", "095234.406000", "095234.406000", "095234.421000", "095234.421000", "095234.421000", "095234.421000", "095234.421000", "095314.375000", "095314.390000", "095314.390000", "095314.406000", "095314.406000", "095314.406000", "095314.406000", "095314.406000", "095314.406000", "095314.406000", "095314.421000", "095314.421000", "095314.421000", "095314.421000", "095314.421000", "095314.421000", "095314.421000", "095314.437000", "095314.437000", "095314.437000", "095354.375000", "095354.375000", "095354.390000", "095354.390000", "095354.390000", "095354.390000", "095354.390000", "095354.390000", "095354.390000", "095354.406000", "095354.406000", "095354.406000", "095354.406000", "095354.406000", "095354.406000", "095354.421000", "095354.421000", "095354.421000", "095354.421000", "095354.421000", "095434.390000", "095434.390000", "095434.390000", "095434.390000", "095434.390000", "095434.406000", "095434.406000", "095434.406000", "095434.406000", "095434.406000", "095434.406000", "095434.406000", "095434.421000", "095434.421000", "095434.421000", "095434.421000", "095434.421000", "095434.421000", "095434.437000", "095434.437000", "095514.390000", "095514.390000", "095514.390000", "095514.390000", "095514.406000", "095514.406000", "095514.406000", "095514.406000", "095514.406000", "095514.406000", "095514.406000", "095514.421000", "095514.421000", "095514.437000", "095514.437000", "095514.437000", "095514.437000", "095514.437000", "095514.453000", "095514.453000", "095530.781000", "095530.781000", "095530.781000", "095530.781000", "095530.796000", "095530.796000", "095530.796000", "095530.812000", "095530.812000"],
      "InstanceCreationTime": ["094134.390000", "094134.390000", "094134.390000", "094134.390000", "094134.406000", "094134.406000", "094134.406000", "094134.406000", "094134.406000", "094134.406000", "094134.406000", "094134.406000", "094134.421000", "094134.421000", "094134.421000", "094134.421000", "094134.421000", "094134.421000", "094134.421000", "094134.437000", "094134.437000", "094134.437000", "094134.437000", "094214.375000", "094214.375000", "094214.390000", "094214.390000", "094214.390000", "094214.390000", "094214.390000", "094214.390000", "094214.390000", "094214.406000", "094214.406000", "094214.406000", "094214.406000", "094214.406000", "094214.406000", "094214.406000", "094214.421000", "094214.421000", "094214.421000", "094214.421000", "094234.375000", "094234.375000", "094234.390000", "094234.390000", "094234.390000", "094234.390000", "094234.390000", "094234.390000", "094234.390000", "094234.406000", "094314.375000", "094314.375000", "094314.390000", "094314.390000", "094314.390000", "094314.390000", "094314.406000", "094314.406000", "094314.406000", "094314.406000", "094314.406000", "094314.406000", "094314.406000", "094314.421000", "094314.421000", "094314.421000", "094314.421000", "094314.421000", "094314.437000", "094314.437000", "094354.375000", "094354.375000", "094354.390000", "094354.390000", "094354.390000", "094354.390000", "094354.390000", "094354.390000", "094354.390000", "094354.406000", "094354.406000", "094354.421000", "094354.421000", "094354.421000", "094354.421000", "094354.421000", "094354.437000", "094354.437000", "094354.437000", "094354.437000", "094434.375000", "094434.375000", "094434.390000", "094434.390000", "094434.390000", "094434.406000", "094434.406000", "094434.406000", "094434.406000", "094434.406000", "094434.406000", "094434.406000", "094434.421000", "094434.421000", "094434.421000", "094434.421000", "094434.421000", "094434.437000", "094434.437000", "094434.437000", "094514.375000", "094514.375000", "094514.390000", "094514.390000", "094514.390000", "094514.390000", "094514.390000", "094514.406000", "094514.406000", "094514.406000", "094514.406000", "094514.406000", "094514.406000", "094514.406000", "094514.421000", "094514.421000", "094514.421000", "094514.421000", "094514.421000", "094514.421000", "094554.375000", "094554.375000", "094554.390000", "094554.390000", "094554.390000", "094554.390000", "094554.390000", "094554.390000", "094554.390000", "094554.406000", "094554.406000", "094554.406000", "094554.406000", "094554.406000", "094554.406000", "094554.406000", "094554.421000", "094554.421000", "094554.421000", "094554.421000", "094634.375000", "094634.375000", "094634.390000", "094634.390000", "094634.390000", "094634.390000", "094634.390000", "094634.390000", "094634.406000", "094634.406000", "094634.406000", "094634.406000", "094634.406000", "094634.406000", "094634.421000", "094634.421000", "094634.421000", "094634.421000", "094634.421000", "094634.421000", "094714.375000", "094714.375000", "094714.390000", "094714.390000", "094714.390000", "094714.390000", "094714.390000", "094714.390000", "094714.390000", "094714.406000", "094714.406000", "094714.406000", "094714.406000", "094714.406000", "094714.406000", "094714.406000", "094714.421000", "094714.421000", "094714.421000", "094714.421000", "094754.375000", "094754.375000", "094754.390000", "094754.390000", "094754.390000", "094754.390000", "094754.390000", "094754.390000", "094754.406000", "094754.406000", "094754.406000", "094754.406000", "094754.406000", "094754.406000", "094754.406000", "094754.421000", "094754.421000", "094754.421000", "094754.421000", "094754.421000", "094834.375000", "094834.375000", "094834.390000", "094834.390000", "094834.390000", "094834.390000", "094834.406000", "094834.406000", "094834.406000", "094834.406000", "094834.406000", "094834.406000", "094834.421000", "094834.421000", "094834.421000", "094834.437000", "094834.437000", "094834.437000", "094834.437000", "094834.437000", "094914.375000", "094914.375000", "094914.390000", "094914.390000", "094914.406000", "094914.406000", "094914.406000", "094914.406000", "094914.406000", "094914.421000", "094914.421000", "094914.421000", "094914.421000", "094914.421000", "094914.437000", "094914.437000", "094914.437000", "094914.437000", "094914.437000", "094914.453000", "094954.375000", "094954.375000", "094954.390000", "094954.390000", "094954.390000", "094954.390000", "094954.390000", "094954.390000", "094954.390000", "094954.406000", "094954.406000", "094954.406000", "094954.406000", "094954.406000", "094954.406000", "094954.421000", "094954.421000", "094954.421000", "094954.421000", "094954.421000", "095034.375000", "095034.375000", "095034.390000", "095034.390000", "095034.406000", "095034.406000", "095034.406000", "095034.406000", "095034.406000", "095034.406000", "095034.406000", "095034.421000", "095034.421000", "095034.421000", "095034.421000", "095034.421000", "095034.421000", "095034.421000", "095034.437000", "095034.437000", "095114.375000", "095114.390000", "095114.390000", "095114.390000", "095114.390000", "095114.390000", "095114.390000", "095114.406000", "095114.406000", "095114.406000", "095114.406000", "095114.421000", "095114.421000", "095114.421000", "095114.421000", "095114.421000", "095114.421000", "095114.421000", "095114.437000", "095114.437000", "095154.390000", "095154.390000", "095154.390000", "095154.390000", "095154.390000", "095154.390000", "095154.406000", "095154.406000", "095154.406000", "095154.406000", "095154.406000", "095154.421000", "095154.421000", "095154.437000", "095154.437000", "095154.437000", "095154.437000", "095154.453000", "095154.453000", "095154.453000", "095234.375000", "095234.375000", "095234.390000", "095234.390000", "095234.390000", "095234.390000", "095234.390000", "095234.390000", "095234.406000", "095234.406000", "095234.406000", "095234.406000", "095234.406000", "095234.406000", "095234.406000", "095234.421000", "095234.421000", "095234.421000", "095234.421000", "095234.421000", "095314.375000", "095314.390000", "095314.390000", "095314.406000", "095314.406000", "095314.406000", "095314.406000", "095314.406000", "095314.406000", "095314.406000", "095314.421000", "095314.421000", "095314.421000", "095314.421000", "095314.421000", "095314.421000", "095314.421000", "095314.437000", "095314.437000", "095314.437000", "095354.375000", "095354.375000", "095354.390000", "095354.390000", "095354.390000", "095354.390000", "095354.390000", "095354.390000", "095354.390000", "095354.406000", "095354.406000", "095354.406000", "095354.406000", "095354.406000", "095354.406000", "095354.421000", "095354.421000", "095354.421000", "095354.421000", "095354.421000", "095434.390000", "095434.390000", "095434.390000", "095434.390000", "095434.390000", "095434.406000", "095434.406000", "095434.406000", "095434.406000", "095434.406000", "095434.406000", "095434.406000", "095434.421000", "095434.421000", "095434.421000", "095434.421000", "095434.421000", "095434.421000", "095434.437000", "095434.437000", "095514.390000", "095514.390000", "095514.390000", "095514.390000", "095514.406000", "095514.406000", "095514.406000", "095514.406000", "095514.406000", "095514.406000", "095514.406000", "095514.421000", "095514.421000", "095514.437000", "095514.437000", "095514.437000", "095514.437000", "095514.437000", "095514.453000", "095514.453000", "095530.781000", "095530.781000", "095530.781000", "095530.781000", "095530.796000", "095530.796000", "095530.796000", "095530.812000", "095530.812000"],
