{
  "AcquisitionMatrixPE": 72,
  "AcquisitionNumber": 1,
  "AcquisitionTime": "18:30:30.310000",
  "BandwidthPerPixelPhaseEncode": 28.935,
  "BaseResolution": 72,
  "CoilString": "C:HEA;HEP",
  "ConversionSoftware": "dcm2niix",
  "ConversionSoftwareVersion": "v1.0.20190410  GCC6.3.0",
  "DerivedVendorReportedEchoSpacing": 0.000480003,
  "DeviceSerialNumber": "35149",
  "DwellTime": 2.9e-06,
  "EchoTime": 0.025,
  "EffectiveEchoSpacing": 0.000480003,
  "FlipAngle": 75,
  "ImageOrientationPatientDICOM": [0.998967, -0.0244938, -0.0382702, 0.00150298, 0.859614, -0.510942],
  "ImageType": [
    "ORIGINAL",
    "PRIMARY",
    "M",
    "ND",
    "MOSAIC"
],
  "ImagingFrequency": 123.255,
  "InPlanePhaseEncodingDirectionDICOM": "COL",
  "InstitutionAddress": "Street_StreetNo_Rehovot_91E162_District_IL_ZIP",
  "InstitutionName": "Weizmann",
  "InstitutionalDepartmentName": "Department",
  "MRAcquisitionType": "2D",
  "MagneticFieldStrength": 3,
  "Manufacturer": "Siemens",
  "ManufacturersModelName": "TrioTim",
  "Modality": "MR",
  "PartialFourier": 1,
  "PatientPosition": "HFS",
  "PercentPhaseFOV": 100,
  "PhaseEncodingDirection": "j-",
  "PhaseEncodingSteps": 72,
  "PhaseResolution": 1,
  "PixelBandwidth": 2395,
  "ProcedureStepDescription": "Weizmann_Sobel",
  "ProtocolName": "exp1_30_to_AC-PC",
  "PulseSequenceDetails": "%SiemensSeq%_ep2d_pace",
  "ReceiveCoilName": "HeadMatrix",
  "ReconMatrixPE": 72,
  "RepetitionTime": 2,
  "SAR": 0.121889,
  "ScanOptions": "FS",
  "ScanningSequence": "EP",
  "SequenceName": "_epfid2d1_72",
  "SequenceVariant": "SK",
  "SeriesDescription": "exp1_30_to_AC-PC",
  "SeriesNumber": 3,
  "ShimSetting": [2324, 9476, -5446, 756, 120, -399, 91, 186],
  "SliceThickness": 3.7,
  "SliceTiming": [0.995, 0, 1.0525, 0.06, 1.11, 0.1175, 1.17, 0.175, 1.2275, 0.235, 1.2875, 0.2925, 1.345, 0.3525, 1.4025, 0.41, 1.4625, 0.4675, 1.52, 0.5275, 1.58, 0.585, 1.6375, 0.6425, 1.695, 0.7025, 1.755, 0.76, 1.8125, 0.82, 1.87, 0.8775, 1.93, 0.935],
  "SoftwareVersions": "syngo_MR_B17",
  "SpacingBetweenSlices": 3.7,
  "StationName": "MRC35149",
  "TaskName": "blank",
  "TotalReadoutTime": 0.0340802,
  "TxRefAmp": 268.807,
  "VendorReportedEchoSpacing": 0.00048,
  "dcmmeta_affine": [
    [-2.996901512145996, 0.0045089409686625, -0.16802622377872467, 98.93474578857422],
    [0.07348151504993439, 2.5788421630859375, -1.8883187770843506, -57.934024810791016],
    [-0.11481048911809921, 1.5328248739242554, 3.1774234771728516, -88.38363647460938],
    [0.0, 0.0, 0.0, 1.0]
],
  "dcmmeta_reorient_transform": [
    [0.0, -1.0, 0.0, 71.0],
    [1.0, 0.0, 0.0, 0.0],
    [0.0, 0.0, 1.0, 0.0],
    [0.0, 0.0, 0.0, 1.0]
],
  "dcmmeta_shape": [72, 72, 34, 450],
  "dcmmeta_slice_dim": 2,
  "dcmmeta_version": 0.6,
  "global": {
    "const": {
      "AcquisitionMatrix": [72, 0, 0, 72],
      "AngioFlag": "N",
      "BitsAllocated": 16,
      "BitsStored": 12,
      "Columns": 432,
      "EchoNumbers": 1,
      "EchoTime": 25.0,
      "EchoTrainLength": 1,
      "FlipAngle": 75.0,
      "HighBit": 11,
      "ImageOrientationPatient": [0.99896718993593, -0.0244938373324, -0.0382701628458, 0.00150298026779, 0.85961408968559, -0.5109416384132],
      "ImagePositionPatient": [-639.50877566921, -576.12871438791, 317.02130822042],
      "ImageType": [
        "ORIGINAL",
        "PRIMARY",
        "M",
        "ND",
        "MOSAIC"
],
      "ImagedNucleus": "1H",
      "ImagingFrequency": 123.254584,
      "InPlanePhaseEncodingDirection": "COL",
      "MRAcquisitionType": "2D",
      "MagneticFieldStrength": 3.0,
      "Manufacturer": "SIEMENS",
      "ManufacturerModelName": "TrioTim",
      "Modality": "MR",
      "NumberOfAverages": 1.0,
      "NumberOfPhaseEncodingSteps": 72,
      "PercentPhaseFieldOfView": 100.0,
      "PercentSampling": 100.0,
      "PerformedProcedureStepStartTime": "182601.125000",
      "PhotometricInterpretation": "MONOCHROME2",
      "PixelBandwidth": 2395.0,
      "PixelRepresentation": 0,
      "PixelSpacing": [3.0, 3.0],
      "ProtocolName": "exp1_30_to_AC-PC",
      "RepetitionTime": 2000.0,
      "Rows": 432,
      "SAR": 0.12188920530111,
      "SamplesPerPixel": 1,
      "ScanOptions": "FS",
      "ScanningSequence": "EP",
      "SequenceName": "*epfid2d1_72",
      "SequenceVariant": "SK",
      "SeriesDescription": "exp1_30_to_AC-PC",
      "SeriesNumber": 3,
      "SeriesTime": "183118.796000",
      "SliceLocation": -50.826475114145,
      "SliceThickness": 3.7000000476837,
      "SmallestImagePixelValue": 0,
      "SoftwareVersions": "syngo MR B17",
      "SpacingBetweenSlices": 3.7000000715338,
      "SpecificCharacterSet": "ISO_IR 100",
      "StudyID": "1",
      "StudyTime": "182601.062000",
      "TransmitCoilName": "Body",
      "VariableFlipAngleFlag": "N",
      "WindowCenterWidthExplanation": "Algo1",
      "dBdt": 0.0},
    "slices": {}
  },
  "time": {
    "samples": {
      "AcquisitionNumber": [1, 2, 3, 4, 5, 6, 7, 8, 9, 10, 11, 12, 13, 14, 15, 16, 17, 18, 19, 20, 21, 22, 23, 24, 25, 26, 27, 28, 29, 30, 31, 32, 33, 34, 35, 36, 37, 38, 39, 40, 41, 42, 43, 44, 45, 46, 47, 48, 49, 50, 51, 52, 53, 54, 55, 56, 57, 58, 59, 60, 61, 62, 63, 64, 65, 66, 67, 68, 69, 70, 71, 72, 73, 74, 75, 76, 77, 78, 79, 80, 81, 82, 83, 84, 85, 86, 87, 88, 89, 90, 91, 92, 93, 94, 95, 96, 97, 98, 99, 100, 101, 102, 103, 104, 105, 106, 107, 108, 109, 110, 111, 112, 113, 114, 115, 116, 117, 118, 119, 120, 121, 122, 123, 124, 125, 126, 127, 128, 129, 130, 131, 132, 133, 134, 135, 136, 137, 138, 139, 140, 141, 142, 143, 144, 145, 146, 147, 148, 149, 150, 151, 152, 153, 154, 155, 156, 157, 158, 159, 160, 161, 162, 163, 164, 165, 166, 167, 168, 169, 170, 171, 172, 173, 174, 175, 176, 177, 178, 179, 180, 181, 182, 183, 184, 185, 186, 187, 188, 189, 190, 191, 192, 193, 194, 195, 196, 197, 198, 199, 200, 201, 202, 203, 204, 205, 206, 207, 208, 209, 210, 211, 212, 213, 214, 215, 216, 217, 218, 219, 220, 221, 222, 223, 224, 225, 226, 227, 228, 229, 230, 231, 232, 233, 234, 235, 236, 237, 238, 239, 240, 241, 242, 243, 244, 245, 246, 247, 248, 249, 250, 251, 252, 253, 254, 255, 256, 257, 258, 259, 260, 261, 262, 263, 264, 265, 266, 267, 268, 269, 270, 271, 272, 273, 274, 275, 276, 277, 278, 279, 280, 281, 282, 283, 284, 285, 286, 287, 288, 289, 290, 291, 292, 293, 294, 295, 296, 297, 298, 299, 300, 301, 302, 303, 304, 305, 306, 307, 308, 309, 310, 311, 312, 313, 314, 315, 316, 317, 318, 319, 320, 321, 322, 323, 324, 325, 326, 327, 328, 329, 330, 331, 332, 333, 334, 335, 336, 337, 338, 339, 340, 341, 342, 343, 344, 345, 346, 347, 348, 349, 350, 351, 352, 353, 354, 355, 356, 357, 358, 359, 360, 361, 362, 363, 364, 365, 366, 367, 368, 369, 370, 371, 372, 373, 374, 375, 376, 377, 378, 379, 380, 381, 382, 383, 384, 385, 386, 387, 388, 389, 390, 391, 392, 393, 394, 395, 396, 397, 398, 399, 400, 401, 402, 403, 404, 405, 406, 407, 408, 409, 410, 411, 412, 413, 414, 415, 416, 417, 418, 419, 420, 421, 422, 423, 424, 425, 426, 427, 428, 429, 430, 431, 432, 433, 434, 435, 436, 437, 438, 439, 440, 441, 442, 443, 444, 445, 446, 447, 448, 449, 450],
      "AcquisitionTime": ["183030.310000", "183032.317500", "183034.325000", "183036.332500", "183038.342500", "183040.350000", "183042.357500", "183044.365000", "183046.372500", "183048.382500", "183050.390000", "183052.397500", "183054.405000", "183056.412500", "183058.422500", "183100.430000", "183102.437500", "183104.445000", "183106.455000", "183108.462500", "183110.470000", "183112.477500", "183114.485000", "183116.495000", "183118.502500", "183120.510000", "183122.517500", "183124.525000", "183126.535000", "183128.542500", "183130.550000", "183132.557500", "183134.567500", "183136.575000", "183138.582500", "183140.590000", "183142.597500", "183144.607500", "183146.615000", "183148.622500", "183150.630000", "183152.637500", "183154.647500", "183156.655000", "183158.662500", "183200.670000", "183202.677500", "183204.687500", "183206.695000", "183208.702500", "183210.710000", "183212.720000", "183214.727500", "183216.735000", "183218.742500", "183220.750000", "183222.760000", "183224.767500", "183226.775000", "183228.782500", "183230.790000", "183232.800000", "183234.807500", "183236.815000", "183238.822500", "183240.832500", "183242.840000", "183244.847500", "183246.855000", "183248.862500", "183250.872500", "183252.880000", "183254.887500", "183256.895000", "183258.902500", "183300.912500", "183302.920000", "183304.927500", "183306.935000", "183308.945000", "183310.952500", "183312.960000", "183314.967500", "183316.975000", "183318.985000", "183320.992500", "183323.000000", "183325.007500", "183327.015000", "183329.025000", "183331.032500", "183333.040000", "183335.047500", "183337.057500", "183339.065000", "183341.072500", "183343.080000", "183345.087500", "183347.097500", "183349.105000", "183351.112500", "183353.120000", "183355.127500", "183357.137500", "183359.145000", "183401.152500", "183403.160000", "183405.167500", "183407.177500", "183409.185000", "183411.192500", "183413.200000", "183415.210000", "183417.217500", "183419.225000", "183421.232500", "183423.240000", "183425.250000", "183427.257500", "183429.265000", "183431.272500", "183433.280000", "183435.290000", "183437.297500", "183439.305000", "183441.312500", "183443.322500", "183445.330000", "183447.337500", "183449.345000", "183451.352500", "183453.362500", "183455.370000", "183457.377500", "183459.385000", "183501.392500", "183503.402500", "183505.410000", "183507.417500", "183509.425000", "183511.435000", "183513.442500", "183515.450000", "183517.457500", "183519.465000", "183521.475000", "183523.482500", "183525.490000", "183527.497500", "183529.505000", "183531.515000", "183533.522500", "183535.530000", "183537.537500", "183539.545000", "183541.555000", "183543.562500", "183545.570000", "183547.577500", "183549.587500", "183551.595000", "183553.602500", "183555.610000", "183557.617500", "183559.627500", "183601.635000", "183603.642500", "183605.650000", "183607.657500", "183609.667500", "183611.675000", "183613.682500", "183615.690000", "183617.700000", "183619.707500", "183621.715000", "183623.722500", "183625.730000", "183627.740000", "183629.747500", "183631.755000", "183633.762500", "183635.770000", "183637.780000", "183639.787500", "183641.795000", "183643.802500", "183645.812500", "183647.820000", "183649.827500", "183651.835000", "183653.842500", "183655.852500", "183657.860000", "183659.867500", "183701.875000", "183703.882500", "183705.892500", "183707.900000", "183709.907500", "183711.915000", "183713.922500", "183715.932500", "183717.940000", "183719.947500", "183721.955000", "183723.965000", "183725.972500", "183727.980000", "183729.987500", "183731.995000", "183734.005000", "183736.012500", "183738.020000", "183740.027500", "183742.035000", "183744.045000", "183746.052500", "183748.060000", "183750.067500", "183752.077500", "183754.085000", "183756.092500", "183758.100000", "183800.107500", "183802.117500", "183804.125000", "183806.132500", "183808.140000", "183810.147500", "183812.157500", "183814.165000", "183816.172500", "183818.180000", "183820.190000", "183822.197500", "183824.205000", "183826.212500", "183828.220000", "183830.230000", "183832.237500", "183834.245000", "183836.252500", "183838.260000", "183840.270000", "183842.277500", "183844.285000", "183846.292500", "183848.300000", "183850.310000", "183852.317500", "183854.325000", "183856.332500", "183858.342500", "183900.350000", "183902.357500", "183904.365000", "183906.372500", "183908.382500", "183910.390000", "183912.397500", "183914.405000", "183916.412500", "183918.422500", "183920.430000", "183922.437500", "183924.445000", "183926.455000", "183928.462500", "183930.470000", "183932.477500", "183934.485000", "183936.495000", "183938.502500", "183940.510000", "183942.517500", "183944.525000", "183946.535000", "183948.542500", "183950.550000", "183952.557500", "183954.567500", "183956.575000", "183958.582500", "184000.590000", "184002.597500", "184004.607500", "184006.615000", "184008.622500", "184010.630000", "184012.637500", "184014.647500", "184016.655000", "184018.662500", "184020.670000", "184022.677500", "184024.687500", "184026.695000", "184028.702500", "184030.710000", "184032.720000", "184034.727500", "184036.735000", "184038.742500", "184040.750000", "184042.760000", "184044.767500", "184046.775000", "184048.782500", "184050.790000", "184052.800000", "184054.807500", "184056.815000", "184058.822500", "184100.832500", "184102.840000", "184104.847500", "184106.855000", "184108.862500", "184110.872500", "184112.880000", "184114.887500", "184116.895000", "184118.902500", "184120.912500", "184122.920000", "184124.927500", "184126.935000", "184128.945000", "184130.952500", "184132.960000", "184134.967500", "184136.975000", "184138.985000", "184140.992500", "184143.000000", "184145.007500", "184147.015000", "184149.025000", "184151.032500", "184153.040000", "184155.047500", "184157.057500", "184159.065000", "184201.072500", "184203.080000", "184205.087500", "184207.097500", "184209.105000", "184211.112500", "184213.120000", "184215.127500", "184217.137500", "184219.145000", "184221.152500", "184223.160000", "184225.167500", "184227.177500", "184229.185000", "184231.192500", "184233.200000", "184235.210000", "184237.217500", "184239.225000", "184241.232500", "184243.240000", "184245.250000", "184247.257500", "184249.265000", "184251.272500", "184253.280000", "184255.290000", "184257.297500", "184259.305000", "184301.312500", "184303.322500", "184305.330000", "184307.337500", "184309.345000", "184311.352500", "184313.362500", "184315.370000", "184317.377500", "184319.385000", "184321.392500", "184323.402500", "184325.410000", "184327.417500", "184329.425000", "184331.435000", "184333.442500", "184335.450000", "184337.457500", "184339.465000", "184341.475000", "184343.482500", "184345.490000", "184347.497500", "184349.505000", "184351.515000", "184353.522500", "184355.530000", "184357.537500", "184359.545000", "184401.555000", "184403.562500", "184405.570000", "184407.577500", "184409.587500", "184411.595000", "184413.602500", "184415.610000", "184417.617500", "184419.627500", "184421.635000", "184423.642500", "184425.650000", "184427.657500", "184429.667500", "184431.675000", "184433.682500", "184435.690000", "184437.700000", "184439.707500", "184441.715000", "184443.722500", "184445.730000", "184447.740000", "184449.747500", "184451.755000", "184453.762500", "184455.770000", "184457.780000", "184459.787500", "184501.795000", "184503.802500", "184505.812500", "184507.820000", "184509.827500", "184511.835000", "184513.842500", "184515.852500", "184517.860000", "184519.867500", "184521.875000", "184523.882500", "184525.892500", "184527.900000", "184529.907500", "184531.915000"],
      "ContentTime": ["183118.812000", "183118.812000", "183118.812000", "183118.812000", "183118.812000", "183118.828000", "183118.828000", "183118.828000", "183118.828000", "183118.843000", "183118.843000", "183118.843000", "183118.843000", "183118.859000", "183118.859000", "183118.859000", "183118.859000", "183118.859000", "183118.859000", "183118.859000", "183118.875000", "183118.875000", "183118.875000", "183118.875000", "183158.796000", "183158.796000", "183158.796000", "183158.796000", "183158.812000", "183158.812000", "183158.812000", "183158.812000", "183158.812000", "183158.812000", "183158.828000", "183158.828000", "183158.828000", "183158.828000", "183158.828000", "183158.828000", "183158.828000", "183158.843000", "183158.843000", "183158.843000", "183238.796000", "183238.796000", "183238.796000", "183238.796000", "183238.812000", "183238.812000", "183238.812000", "183238.812000", "183238.812000", "183238.812000", "183238.828000", "183238.828000", "183238.828000", "183238.828000", "183238.828000", "183238.828000", "183238.828000", "183238.843000", "183238.843000", "183238.843000", "183318.796000", "183318.796000", "183318.796000", "183318.796000", "183318.812000", "183318.812000", "183318.812000", "183318.812000", "183318.812000", "183318.812000", "183318.812000", "183318.828000", "183318.828000", "183318.828000", "183318.828000", "183318.828000", "183318.828000", "183318.828000", "183318.843000", "183318.843000", "183358.796000", "183358.796000", "183358.796000", "183358.796000", "183358.812000", "183358.812000", "183358.812000", "183358.812000", "183358.828000", "183358.828000", "183358.828000", "183358.828000", "183358.828000", "183358.828000", "183358.828000", "183358.843000", "183358.843000", "183358.843000", "183358.843000", "183358.843000", "183438.796000", "183438.796000", "183438.796000", "183438.812000", "183438.812000", "183438.812000", "183438.812000", "183438.812000", "183438.828000", "183438.828000", "183438.828000", "183438.843000", "183438.843000", "183438.843000", "183438.843000", "183438.843000", "183438.843000", "183438.843000", "183438.859000", "183438.859000", "183518.796000", "183518.796000", "183518.796000", "183518.796000", "183518.812000", "183518.812000", "183518.812000", "183518.812000", "183518.828000", "183518.828000", "183518.828000", "183518.828000", "183518.828000", "183518.828000", "183518.828000", "183518.843000", "183518.843000", "183518.843000", "183518.843000", "183518.843000", "183558.796000", "183558.796000", "183558.796000", "183558.796000", "183558.812000", "183558.812000", "183558.812000", "183558.812000", "183558.812000", "183558.812000", "183558.812000", "183558.828000", "183558.828000", "183558.828000", "183558.828000", "183558.828000", "183558.828000", "183558.828000", "183558.843000", "183558.843000", "183618.796000", "183618.796000", "183618.796000", "183618.812000", "183618.812000", "183618.812000", "183618.812000", "183618.812000", "183618.812000", "183618.812000", "183658.796000", "183658.796000", "183658.796000", "183658.796000", "183658.812000", "183658.812000", "183658.812000", "183658.812000", "183658.812000", "183658.812000", "183658.812000", "183658.828000", "183658.843000", "183658.843000", "183658.843000", "183658.843000", "183658.843000", "183658.843000", "183658.843000", "183658.859000", "183738.796000", "183738.796000", "183738.796000", "183738.812000", "183738.812000", "183738.812000", "183738.812000", "183738.812000", "183738.828000", "183738.828000", "183738.828000", "183738.828000", "183738.828000", "183738.843000", "183738.843000", "183738.843000", "183738.859000", "183738.859000", "183738.859000", "183738.859000", "183818.796000", "183818.796000", "183818.796000", "183818.796000", "183818.812000", "183818.812000", "183818.812000", "183818.812000", "183818.812000", "183818.812000", "183818.828000", "183818.828000", "183818.828000", "183818.828000", "183818.828000", "183818.843000", "183818.843000", "183818.843000", "183818.843000", "183818.859000", "183858.796000", "183858.796000", "183858.812000", "183858.812000", "183858.812000", "183858.812000", "183858.812000", "183858.812000", "183858.828000", "183858.828000", "183858.828000", "183858.828000", "183858.828000", "183858.828000", "183858.828000", "183858.843000", "183858.843000", "183858.859000", "183858.859000", "183858.859000", "183938.796000", "183938.812000", "183938.828000", "183938.828000", "183938.828000", "183938.828000", "183938.828000", "183938.828000", "183938.828000", "183938.843000", "183938.843000", "183938.843000", "183938.843000", "183938.843000", "183938.843000", "183938.843000", "183938.859000", "183938.859000", "183938.859000", "183938.859000", "184018.796000", "184018.796000", "184018.796000", "184018.796000", "184018.812000", "184018.812000", "184018.812000", "184018.812000", "184018.812000", "184018.812000", "184018.828000", "184018.828000", "184018.828000", "184018.828000", "184018.828000", "184018.828000", "184018.828000", "184018.843000", "184018.843000", "184018.843000", "184058.796000", "184058.796000", "184058.796000", "184058.796000", "184058.812000", "184058.812000", "184058.812000", "184058.812000", "184058.828000", "184058.828000", "184058.828000", "184058.828000", "184058.828000", "184058.828000", "184058.828000", "184058.843000", "184058.843000", "184058.843000", "184058.843000", "184058.843000", "184138.796000", "184138.796000", "184138.796000", "184138.812000", "184138.812000", "184138.812000", "184138.812000", "184138.812000", "184138.812000", "184138.812000", "184138.828000", "184138.828000", "184138.828000", "184138.828000", "184138.828000", "184138.828000", "184138.828000", "184138.843000", "184138.843000", "184138.843000", "184218.796000", "184218.796000", "184218.796000", "184218.796000", "184218.812000", "184218.812000", "184218.812000", "184218.812000", "184218.812000", "184218.812000", "184218.828000", "184218.828000", "184218.828000", "184218.828000", "184218.828000", "184218.828000", "184218.828000", "184218.843000", "184218.843000", "184218.843000", "184258.796000", "184258.796000", "184258.796000", "184258.796000", "184258.812000", "184258.812000", "184258.812000", "184258.812000", "184258.828000", "184258.828000", "184258.828000", "184258.828000", "184258.828000", "184258.828000", "184258.828000", "184258.843000", "184258.843000", "184258.843000", "184258.843000", "184258.843000", "184338.796000", "184338.796000", "184338.796000", "184338.796000", "184338.812000", "184338.812000", "184338.812000", "184338.812000", "184338.812000", "184338.812000", "184338.828000", "184338.828000", "184338.828000", "184338.828000", "184338.828000", "184338.828000", "184338.843000", "184338.843000", "184338.843000", "184338.843000", "184418.796000", "184418.796000", "184418.796000", "184418.796000", "184418.812000", "184418.812000", "184418.812000", "184418.812000", "184418.812000", "184418.812000", "184418.828000", "184418.828000", "184418.828000", "184418.828000", "184418.828000", "184418.828000", "184418.828000", "184418.843000", "184418.843000", "184418.843000", "184458.796000", "184458.796000", "184458.796000", "184458.796000", "184458.812000", "184458.812000", "184458.812000", "184458.812000", "184458.812000", "184458.812000", "184458.828000", "184458.828000", "184458.828000", "184458.828000", "184458.828000", "184458.828000", "184458.828000", "184458.843000", "184458.843000", "184458.843000", "184529.296000", "184529.296000", "184529.296000", "184529.312000", "184529.312000", "184529.312000", "184529.312000", "184529.328000", "184529.328000", "184529.328000", "184529.328000", "184529.328000", "184529.328000", "184529.328000", "184529.343000", "184529.343000"],
