{
  "AcquisitionMatrixPE": 72,
  "AcquisitionNumber": 1,
  "AcquisitionTime": "13:21:49.907500",
  "BandwidthPerPixelPhaseEncode": 28.935,
  "BaseResolution": 72,
  "CoilString": "C:HEA;HEP",
  "ConversionSoftware": "dcm2niix",
  "ConversionSoftwareVersion": "v1.0.20190410  GCC6.3.0",
  "DerivedVendorReportedEchoSpacing": 0.000480003,
  "DeviceSerialNumber": "35149",
  "DwellTime": 2.9e-06,
  "EchoTime": 0.025,
  "EffectiveEchoSpacing": 0.000480003,
  "FlipAngle": 75,
  "ImageOrientationPatientDICOM": [0.995907, -0.000887699, 0.0903772, 0.0522743, 0.82139, -0.567966],
  "ImageType": [
    "ORIGINAL",
    "PRIMARY",
    "M",
    "ND",
    "MOSAIC"
],
  "ImagingFrequency": 123.254,
  "InPlanePhaseEncodingDirectionDICOM": "COL",
  "InstitutionAddress": "Street_StreetNo_Rehovot_91E162_District_IL_ZIP",
  "InstitutionName": "Weizmann",
  "InstitutionalDepartmentName": "Department",
  "MRAcquisitionType": "2D",
  "MagneticFieldStrength": 3,
  "Manufacturer": "Siemens",
  "ManufacturersModelName": "TrioTim",
  "Modality": "MR",
  "PartialFourier": 1,
  "PatientPosition": "HFS",
  "PercentPhaseFOV": 100,
  "PhaseEncodingDirection": "j-",
  "PhaseEncodingSteps": 72,
  "PhaseResolution": 1,
  "PixelBandwidth": 2395,
  "ProcedureStepDescription": "Weizmann_Sobel",
  "ProtocolName": "exp1_30_to_AC-PC",
  "PulseSequenceDetails": "%SiemensSeq%_ep2d_pace",
  "ReceiveCoilName": "HeadMatrix",
  "ReconMatrixPE": 72,
  "RepetitionTime": 2,
  "SAR": 0.115859,
  "ScanOptions": "FS",
  "ScanningSequence": "EP",
  "SequenceName": "_epfid2d1_72",
  "SequenceVariant": "SK",
  "SeriesDescription": "exp1_30_to_AC-PC",
  "SeriesNumber": 3,
  "ShimSetting": [2412, 9537, -5321, 620, 207, -390, -79, 71],
  "SliceThickness": 3.7,
  "SliceTiming": [0.9925, 0, 1.0525, 0.0575, 1.11, 0.1175, 1.1675, 0.175, 1.2275, 0.2325, 1.285, 0.2925, 1.345, 0.35, 1.4025, 0.41, 1.46, 0.4675, 1.52, 0.525, 1.5775, 0.585, 1.6375, 0.6425, 1.695, 0.7, 1.7525, 0.76, 1.8125, 0.8175, 1.87, 0.8775, 1.9275, 0.935],
  "SoftwareVersions": "syngo_MR_B17",
  "SpacingBetweenSlices": 3.7,
  "StationName": "MRC35149",
  "TaskName": "blank",
  "TotalReadoutTime": 0.0340802,
  "TxRefAmp": 286.886,
  "VendorReportedEchoSpacing": 0.00048,
  "dcmmeta_affine": [
    [-2.9877216815948486, 0.15682275593280792, 0.2728036940097809, 102.79236602783203],
    [0.0026630975771695375, 2.4641706943511963, -2.110353946685791, -44.08623504638672],
    [0.2711314558982849, 1.703898310661316, 3.026876926422119, -110.74227905273438],
    [0.0, 0.0, 0.0, 1.0]
],
  "dcmmeta_reorient_transform": [
    [0.0, -1.0, 0.0, 71.0],
    [1.0, 0.0, 0.0, 0.0],
    [0.0, 0.0, 1.0, 0.0],
    [0.0, 0.0, 0.0, 1.0]
],
  "dcmmeta_shape": [72, 72, 34, 450],
  "dcmmeta_slice_dim": 2,
  "dcmmeta_version": 0.6,
  "global": {
    "const": {
      "AcquisitionMatrix": [72, 0, 0, 72],
      "AngioFlag": "N",
      "BitsAllocated": 16,
      "BitsStored": 12,
      "Columns": 432,
      "EchoNumbers": 1,
      "EchoTime": 25.0,
      "EchoTrainLength": 1,
      "FlipAngle": 75.0,
      "HighBit": 11,
      "ImageOrientationPatient": [0.99590721600741, -0.0008876991808, 0.09037714918345, 0.05227425143333, 0.82139023251367, -0.56796609808],
      "ImagePositionPatient": [-679.94477495073, -573.94125301937, 268.13253085274],
      "ImageType": [
        "ORIGINAL",
        "PRIMARY",
        "M",
        "ND",
        "MOSAIC"
],
      "ImagedNucleus": "1H",
      "ImagingFrequency": 123.25419,
      "InPlanePhaseEncodingDirection": "COL",
      "MRAcquisitionType": "2D",
      "MagneticFieldStrength": 3.0,
      "Manufacturer": "SIEMENS",
      "ManufacturerModelName": "TrioTim",
      "Modality": "MR",
      "NumberOfAverages": 1.0,
      "NumberOfPhaseEncodingSteps": 72,
      "PercentPhaseFieldOfView": 100.0,
      "PercentSampling": 100.0,
      "PerformedProcedureStepStartTime": "130655.015000",
      "PhotometricInterpretation": "MONOCHROME2",
      "PixelBandwidth": 2395.0,
      "PixelRepresentation": 0,
      "PixelSpacing": [3.0, 3.0],
      "ProtocolName": "exp1_30_to_AC-PC",
      "RepetitionTime": 2000.0,
      "Rows": 432,
      "SAR": 0.1158594696149,
      "SamplesPerPixel": 1,
      "ScanOptions": "FS",
      "ScanningSequence": "EP",
      "SequenceName": "*epfid2d1_72",
      "SequenceVariant": "SK",
      "SeriesDescription": "exp1_30_to_AC-PC",
      "SeriesNumber": 3,
      "SeriesTime": "132240.484000",
      "SliceLocation": -57.871233973595,
      "SliceThickness": 3.7000000476837,
      "SmallestImagePixelValue": 0,
      "SoftwareVersions": "syngo MR B17",
      "SpacingBetweenSlices": 3.7000000323644,
      "SpecificCharacterSet": "ISO_IR 100",
      "StudyID": "1",
      "StudyTime": "130654.921000",
      "TransmitCoilName": "Body",
      "VariableFlipAngleFlag": "N",
      "WindowCenterWidthExplanation": "Algo1",
      "dBdt": 0.0},
    "slices": {}
  },
  "time": {
    "samples": {
      "AcquisitionNumber": [1, 2, 3, 4, 5, 6, 7, 8, 9, 10, 11, 12, 13, 14, 15, 16, 17, 18, 19, 20, 21, 22, 23, 24, 25, 26, 27, 28, 29, 30, 31, 32, 33, 34, 35, 36, 37, 38, 39, 40, 41, 42, 43, 44, 45, 46, 47, 48, 49, 50, 51, 52, 53, 54, 55, 56, 57, 58, 59, 60, 61, 62, 63, 64, 65, 66, 67, 68, 69, 70, 71, 72, 73, 74, 75, 76, 77, 78, 79, 80, 81, 82, 83, 84, 85, 86, 87, 88, 89, 90, 91, 92, 93, 94, 95, 96, 97, 98, 99, 100, 101, 102, 103, 104, 105, 106, 107, 108, 109, 110, 111, 112, 113, 114, 115, 116, 117, 118, 119, 120, 121, 122, 123, 124, 125, 126, 127, 128, 129, 130, 131, 132, 133, 134, 135, 136, 137, 138, 139, 140, 141, 142, 143, 144, 145, 146, 147, 148, 149, 150, 151, 152, 153, 154, 155, 156, 157, 158, 159, 160, 161, 162, 163, 164, 165, 166, 167, 168, 169, 170, 171, 172, 173, 174, 175, 176, 177, 178, 179, 180, 181, 182, 183, 184, 185, 186, 187, 188, 189, 190, 191, 192, 193, 194, 195, 196, 197, 198, 199, 200, 201, 202, 203, 204, 205, 206, 207, 208, 209, 210, 211, 212, 213, 214, 215, 216, 217, 218, 219, 220, 221, 222, 223, 224, 225, 226, 227, 228, 229, 230, 231, 232, 233, 234, 235, 236, 237, 238, 239, 240, 241, 242, 243, 244, 245, 246, 247, 248, 249, 250, 251, 252, 253, 254, 255, 256, 257, 258, 259, 260, 261, 262, 263, 264, 265, 266, 267, 268, 269, 270, 271, 272, 273, 274, 275, 276, 277, 278, 279, 280, 281, 282, 283, 284, 285, 286, 287, 288, 289, 290, 291, 292, 293, 294, 295, 296, 297, 298, 299, 300, 301, 302, 303, 304, 305, 306, 307, 308, 309, 310, 311, 312, 313, 314, 315, 316, 317, 318, 319, 320, 321, 322, 323, 324, 325, 326, 327, 328, 329, 330, 331, 332, 333, 334, 335, 336, 337, 338, 339, 340, 341, 342, 343, 344, 345, 346, 347, 348, 349, 350, 351, 352, 353, 354, 355, 356, 357, 358, 359, 360, 361, 362, 363, 364, 365, 366, 367, 368, 369, 370, 371, 372, 373, 374, 375, 376, 377, 378, 379, 380, 381, 382, 383, 384, 385, 386, 387, 388, 389, 390, 391, 392, 393, 394, 395, 396, 397, 398, 399, 400, 401, 402, 403, 404, 405, 406, 407, 408, 409, 410, 411, 412, 413, 414, 415, 416, 417, 418, 419, 420, 421, 422, 423, 424, 425, 426, 427, 428, 429, 430, 431, 432, 433, 434, 435, 436, 437, 438, 439, 440, 441, 442, 443, 444, 445, 446, 447, 448, 449, 450],
      "AcquisitionTime": ["132149.907500", "132151.917500", "132153.925000", "132155.932500", "132157.940000", "132159.947500", "132201.957500", "132203.965000", "132205.972500", "132207.980000", "132209.987500", "132211.997500", "132214.005000", "132216.012500", "132218.020000", "132220.030000", "132222.037500", "132224.045000", "132226.052500", "132228.060000", "132230.070000", "132232.077500", "132234.085000", "132236.092500", "132238.100000", "132240.110000", "132242.117500", "132244.125000", "132246.132500", "132248.142500", "132250.150000", "132252.157500", "132254.165000", "132256.172500", "132258.182500", "132300.190000", "132302.197500", "132304.205000", "132306.212500", "132308.222500", "132310.230000", "132312.237500", "132314.245000", "132316.255000", "132318.262500", "132320.270000", "132322.277500", "132324.285000", "132326.295000", "132328.302500", "132330.310000", "132332.317500", "132334.325000", "132336.335000", "132338.342500", "132340.350000", "132342.357500", "132344.365000", "132346.375000", "132348.382500", "132350.390000", "132352.397500", "132354.407500", "132356.415000", "132358.422500", "132400.430000", "132402.437500", "132404.447500", "132406.455000", "132408.462500", "132410.470000", "132412.477500", "132414.487500", "132416.495000", "132418.502500", "132420.510000", "132422.520000", "132424.527500", "132426.535000", "132428.542500", "132430.550000", "132432.560000", "132434.567500", "132436.575000", "132438.582500", "132440.590000", "132442.600000", "132444.607500", "132446.615000", "132448.622500", "132450.632500", "132452.640000", "132454.647500", "132456.655000", "132458.662500", "132500.672500", "132502.680000", "132504.687500", "132506.695000", "132508.702500", "132510.712500", "132512.720000", "132514.727500", "132516.735000", "132518.742500", "132520.752500", "132522.760000", "132524.767500", "132526.775000", "132528.785000", "132530.792500", "132532.800000", "132534.807500", "132536.815000", "132538.825000", "132540.832500", "132542.840000", "132544.847500", "132546.855000", "132548.865000", "132550.872500", "132552.880000", "132554.887500", "132556.897500", "132558.905000", "132600.912500", "132602.920000", "132604.927500", "132606.937500", "132608.945000", "132610.952500", "132612.960000", "132614.967500", "132616.977500", "132618.985000", "132620.992500", "132623.000000", "132625.010000", "132627.017500", "132629.025000", "132631.032500", "132633.040000", "132635.050000", "132637.057500", "132639.065000", "132641.072500", "132643.080000", "132645.090000", "132647.097500", "132649.105000", "132651.112500", "132653.120000", "132655.130000", "132657.137500", "132659.145000", "132701.152500", "132703.162500", "132705.170000", "132707.177500", "132709.185000", "132711.192500", "132713.202500", "132715.210000", "132717.217500", "132719.225000", "132721.232500", "132723.242500", "132725.250000", "132727.257500", "132729.265000", "132731.275000", "132733.282500", "132735.290000", "132737.297500", "132739.305000", "132741.315000", "132743.322500", "132745.330000", "132747.337500", "132749.345000", "132751.355000", "132753.362500", "132755.370000", "132757.377500", "132759.387500", "132801.395000", "132803.402500", "132805.410000", "132807.417500", "132809.427500", "132811.435000", "132813.442500", "132815.450000", "132817.457500", "132819.467500", "132821.475000", "132823.482500", "132825.490000", "132827.497500", "132829.507500", "132831.515000", "132833.522500", "132835.530000", "132837.540000", "132839.547500", "132841.555000", "132843.562500", "132845.570000", "132847.580000", "132849.587500", "132851.595000", "132853.602500", "132855.610000", "132857.620000", "132859.627500", "132901.635000", "132903.642500", "132905.652500", "132907.660000", "132909.667500", "132911.675000", "132913.682500", "132915.692500", "132917.700000", "132919.707500", "132921.715000", "132923.722500", "132925.732500", "132927.740000", "132929.747500", "132931.755000", "132933.765000", "132935.772500", "132937.780000", "132939.787500", "132941.795000", "132943.805000", "132945.812500", "132947.820000", "132949.827500", "132951.835000", "132953.845000", "132955.852500", "132957.860000", "132959.867500", "133001.877500", "133003.885000", "133005.892500", "133007.900000", "133009.907500", "133011.917500", "133013.925000", "133015.932500", "133017.940000", "133019.947500", "133021.957500", "133023.965000", "133025.972500", "133027.980000", "133029.987500", "133031.997500", "133034.005000", "133036.012500", "133038.020000", "133040.030000", "133042.037500", "133044.045000", "133046.052500", "133048.060000", "133050.070000", "133052.077500", "133054.085000", "133056.092500", "133058.100000", "133100.110000", "133102.117500", "133104.125000", "133106.132500", "133108.142500", "133110.150000", "133112.157500", "133114.165000", "133116.172500", "133118.182500", "133120.190000", "133122.197500", "133124.205000", "133126.212500", "133128.222500", "133130.230000", "133132.237500", "133134.245000", "133136.255000", "133138.262500", "133140.270000", "133142.277500", "133144.285000", "133146.295000", "133148.302500", "133150.310000", "133152.317500", "133154.325000", "133156.335000", "133158.342500", "133200.350000", "133202.357500", "133204.365000", "133206.375000", "133208.382500", "133210.390000", "133212.397500", "133214.407500", "133216.415000", "133218.422500", "133220.430000", "133222.437500", "133224.447500", "133226.455000", "133228.462500", "133230.470000", "133232.477500", "133234.487500", "133236.495000", "133238.502500", "133240.510000", "133242.520000", "133244.527500", "133246.535000", "133248.542500", "133250.550000", "133252.560000", "133254.567500", "133256.575000", "133258.582500", "133300.590000", "133302.600000", "133304.607500", "133306.615000", "133308.622500", "133310.632500", "133312.640000", "133314.647500", "133316.655000", "133318.662500", "133320.672500", "133322.680000", "133324.687500", "133326.695000", "133328.702500", "133330.712500", "133332.720000", "133334.727500", "133336.735000", "133338.742500", "133340.752500", "133342.760000", "133344.767500", "133346.775000", "133348.785000", "133350.792500", "133352.800000", "133354.807500", "133356.815000", "133358.825000", "133400.832500", "133402.840000", "133404.847500", "133406.855000", "133408.865000", "133410.872500", "133412.880000", "133414.887500", "133416.897500", "133418.905000", "133420.912500", "133422.920000", "133424.927500", "133426.937500", "133428.945000", "133430.952500", "133432.960000", "133434.967500", "133436.977500", "133438.985000", "133440.992500", "133443.000000", "133445.010000", "133447.017500", "133449.025000", "133451.032500", "133453.040000", "133455.050000", "133457.057500", "133459.065000", "133501.072500", "133503.080000", "133505.090000", "133507.097500", "133509.105000", "133511.112500", "133513.120000", "133515.130000", "133517.137500", "133519.145000", "133521.152500", "133523.162500", "133525.170000", "133527.177500", "133529.185000", "133531.192500", "133533.202500", "133535.210000", "133537.217500", "133539.225000", "133541.232500", "133543.242500", "133545.250000", "133547.257500", "133549.265000", "133551.275000", "133553.282500", "133555.290000", "133557.297500", "133559.305000", "133601.315000", "133603.322500", "133605.330000", "133607.337500", "133609.345000", "133611.355000", "133613.362500", "133615.370000", "133617.377500", "133619.387500", "133621.395000", "133623.402500", "133625.410000", "133627.417500", "133629.427500", "133631.435000", "133633.442500", "133635.450000", "133637.457500", "133639.467500", "133641.475000", "133643.482500", "133645.490000", "133647.497500", "133649.507500", "133651.515000"],
      "ContentTime": ["132240.484000", "132240.484000", "132240.484000", "132240.484000", "132240.500000", "132240.500000", "132240.500000", "132240.500000", "132240.500000", "132240.500000", "132240.500000", "132240.515000", "132240.515000", "132240.515000", "132240.515000", "132240.515000", "132240.515000", "132240.531000", "132240.531000", "132240.531000", "132240.531000", "132240.531000", "132240.531000", "132240.531000", "132240.546000", "132320.468000", "132320.468000", "132320.484000", "132320.484000", "132320.484000", "132320.484000", "132320.484000", "132320.484000", "132320.484000", "132320.500000", "132320.500000", "132320.500000", "132320.500000", "132320.500000", "132320.500000", "132320.500000", "132320.515000", "132320.515000", "132320.515000", "132320.515000", "132400.468000", "132400.468000", "132400.484000", "132400.484000", "132400.484000", "132400.484000", "132400.484000", "132400.484000", "132400.484000", "132400.500000", "132400.500000", "132400.500000", "132400.500000", "132400.500000", "132400.500000", "132400.515000", "132400.515000", "132400.515000", "132400.515000", "132400.515000", "132440.468000", "132440.468000", "132440.484000", "132440.484000", "132440.484000", "132440.484000", "132440.484000", "132440.484000", "132440.484000", "132440.500000", "132440.500000", "132440.500000", "132440.500000", "132440.500000", "132440.500000", "132440.515000", "132440.515000", "132440.515000", "132440.515000", "132440.515000", "132520.468000", "132520.468000", "132520.484000", "132520.484000", "132520.484000", "132520.484000", "132520.484000", "132520.484000", "132520.484000", "132520.500000", "132520.500000", "132520.500000", "132520.500000", "132520.500000", "132520.500000", "132520.500000", "132520.515000", "132520.515000", "132520.515000", "132520.515000", "132600.468000", "132600.468000", "132600.484000", "132600.484000", "132600.484000", "132600.484000", "132600.484000", "132600.484000", "132600.484000", "132600.500000", "132600.500000", "132600.500000", "132600.515000", "132600.515000", "132600.515000", "132600.531000", "132600.531000", "132600.531000", "132600.531000", "132600.531000", "132640.468000", "132640.468000", "132640.484000", "132640.484000", "132640.484000", "132640.484000", "132640.484000", "132640.500000", "132640.500000", "132640.500000", "132640.500000", "132640.500000", "132640.500000", "132640.500000", "132640.500000", "132640.515000", "132640.515000", "132640.515000", "132640.515000", "132640.515000", "132720.468000", "132720.468000", "132720.484000", "132720.484000", "132720.484000", "132720.484000", "132720.484000", "132720.484000", "132720.484000", "132720.500000", "132720.500000", "132720.500000", "132720.500000", "132720.500000", "132720.500000", "132720.500000", "132720.500000", "132720.515000", "132720.515000", "132720.515000", "132800.468000", "132800.468000", "132800.484000", "132800.484000", "132800.484000", "132800.484000", "132800.484000", "132800.484000", "132800.484000", "132800.500000", "132800.500000", "132800.500000", "132800.500000", "132800.500000", "132800.500000", "132800.500000", "132800.515000", "132800.515000", "132800.515000", "132800.515000", "132820.468000", "132820.468000", "132820.484000", "132820.484000", "132820.484000", "132820.484000", "132820.484000", "132820.500000", "132820.500000", "132820.500000", "132900.468000", "132900.468000", "132900.484000", "132900.484000", "132900.484000", "132900.484000", "132900.484000", "132900.500000", "132900.500000", "132900.500000", "132900.500000", "132900.500000", "132900.500000", "132900.515000", "132900.515000", "132900.515000", "132900.515000", "132900.515000", "132900.515000", "132900.515000", "132940.468000", "132940.468000", "132940.484000", "132940.484000", "132940.484000", "132940.484000", "132940.484000", "132940.484000", "132940.484000", "132940.500000", "132940.500000", "132940.500000", "132940.500000", "132940.515000", "132940.515000", "132940.515000", "132940.515000", "132940.515000", "132940.515000", "132940.531000", "133020.468000", "133020.468000", "133020.484000", "133020.484000", "133020.484000", "133020.484000", "133020.484000", "133020.484000", "133020.484000", "133020.500000", "133020.500000", "133020.500000", "133020.500000", "133020.515000", "133020.515000", "133020.515000", "133020.515000", "133020.515000", "133020.515000", "133020.531000", "133100.468000", "133100.468000", "133100.484000", "133100.484000", "133100.484000", "133100.484000", "133100.484000", "133100.484000", "133100.484000", "133100.500000", "133100.500000", "133100.500000", "133100.500000", "133100.500000", "133100.500000", "133100.500000", "133100.500000", "133100.515000", "133100.515000", "133100.515000", "133140.468000", "133140.468000", "133140.484000", "133140.484000", "133140.484000", "133140.484000", "133140.484000", "133140.484000", "133140.484000", "133140.500000", "133140.500000", "133140.500000", "133140.500000", "133140.500000", "133140.500000", "133140.500000", "133140.515000", "133140.515000", "133140.515000", "133140.531000", "133220.468000", "133220.468000", "133220.484000", "133220.484000", "133220.484000", "133220.484000", "133220.484000", "133220.484000", "133220.484000", "133220.500000", "133220.500000", "133220.500000", "133220.500000", "133220.500000", "133220.515000", "133220.515000", "133220.515000", "133220.515000", "133220.515000", "133220.531000", "133300.468000", "133300.484000", "133300.484000", "133300.484000", "133300.484000", "133300.484000", "133300.500000", "133300.500000", "133300.500000", "133300.515000", "133300.515000", "133300.515000", "133300.515000", "133300.515000", "133300.515000", "133300.531000", "133300.531000", "133300.531000", "133300.531000", "133300.531000", "133340.468000", "133340.468000", "133340.484000", "133340.484000", "133340.484000", "133340.484000", "133340.484000", "133340.484000", "133340.484000", "133340.500000", "133340.500000", "133340.500000", "133340.500000", "133340.500000", "133340.500000", "133340.515000", "133340.515000", "133340.515000", "133340.515000", "133340.515000", "133420.468000", "133420.468000", "133420.484000", "133420.484000", "133420.484000", "133420.484000", "133420.484000", "133420.484000", "133420.484000", "133420.500000", "133420.500000", "133420.500000", "133420.500000", "133420.500000", "133420.500000", "133420.500000", "133420.515000", "133420.515000", "133420.515000", "133420.515000", "133500.468000", "133500.468000", "133500.484000", "133500.484000", "133500.484000", "133500.484000", "133500.484000", "133500.484000", "133500.484000", "133500.500000", "133500.500000", "133500.500000", "133500.500000", "133500.500000", "133500.500000", "133500.500000", "133500.515000", "133500.515000", "133500.515000", "133500.515000", "133540.468000", "133540.468000", "133540.484000", "133540.484000", "133540.484000", "133540.484000", "133540.484000", "133540.484000", "133540.484000", "133540.500000", "133540.500000", "133540.500000", "133540.500000", "133540.500000", "133540.500000", "133540.500000", "133540.515000", "133540.515000", "133540.515000", "133540.515000", "133620.468000", "133620.468000", "133620.484000", "133620.484000", "133620.484000", "133620.484000", "133620.484000", "133620.484000", "133620.484000", "133620.500000", "133620.500000", "133620.500000", "133620.500000", "133620.500000", "133620.500000", "133620.515000", "133620.515000", "133620.515000", "133620.515000", "133620.515000", "133649.406000", "133649.406000", "133649.406000", "133649.406000", "133649.421000", "133649.421000", "133649.421000", "133649.421000", "133649.421000", "133649.421000", "133649.437000", "133649.437000", "133649.437000", "133649.437000", "133649.437000"],
