{
  "AcquisitionMatrixPE": 72,
  "AcquisitionNumber": 1,
  "AcquisitionTime": "12:45:14.242500",
  "BandwidthPerPixelPhaseEncode": 28.935,
  "BaseResolution": 72,
  "CoilString": "C:HEA;HEP",
  "ConversionSoftware": "dcm2niix",
  "ConversionSoftwareVersion": "v1.0.20190410  GCC6.3.0",
  "DerivedVendorReportedEchoSpacing": 0.000480003,
  "DeviceSerialNumber": "35149",
  "DwellTime": 2.9e-06,
  "EchoTime": 0.025,
  "EffectiveEchoSpacing": 0.000480003,
  "FlipAngle": 75,
  "ImageOrientationPatientDICOM": [0.999435, 0.0305022, -0.0141231, -0.0331865, 0.828692, -0.55872],
  "ImageType": [
    "ORIGINAL",
    "PRIMARY",
    "M",
    "ND",
    "MOSAIC"
],
  "ImagingFrequency": 123.255,
  "InPlanePhaseEncodingDirectionDICOM": "COL",
  "InstitutionAddress": "Street_StreetNo_Rehovot_91E162_District_IL_ZIP",
  "InstitutionName": "Weizmann",
  "InstitutionalDepartmentName": "Department",
  "MRAcquisitionType": "2D",
  "MagneticFieldStrength": 3,
  "Manufacturer": "Siemens",
  "ManufacturersModelName": "TrioTim",
  "Modality": "MR",
  "PartialFourier": 1,
  "PatientPosition": "HFS",
  "PercentPhaseFOV": 100,
  "PhaseEncodingDirection": "j-",
  "PhaseEncodingSteps": 72,
  "PhaseResolution": 1,
  "PixelBandwidth": 2395,
  "ProcedureStepDescription": "Weizmann_Sobel",
  "ProtocolName": "exp1_30_to_AC-PC",
  "PulseSequenceDetails": "%SiemensSeq%_ep2d_pace",
  "ReceiveCoilName": "HeadMatrix",
  "ReconMatrixPE": 72,
  "RepetitionTime": 2,
  "SAR": 0.164729,
  "ScanOptions": "FS",
  "ScanningSequence": "EP",
  "SequenceName": "_epfid2d1_72",
  "SequenceVariant": "SK",
  "SeriesDescription": "exp1_30_to_AC-PC",
  "SeriesNumber": 3,
  "ShimSetting": [2248, 9729, -5322, 1045, -127, 77, -208, 446],
  "SliceThickness": 3.7,
  "SliceTiming": [0.9925, 0, 1.0525, 0.0575, 1.11, 0.1175, 1.1675, 0.175, 1.2275, 0.2325, 1.285, 0.2925, 1.345, 0.35, 1.4025, 0.41, 1.46, 0.4675, 1.52, 0.525, 1.5775, 0.585, 1.6375, 0.6425, 1.695, 0.7, 1.7525, 0.76, 1.8125, 0.8175, 1.87, 0.8775, 1.9275, 0.935],
  "SoftwareVersions": "syngo_MR_B17",
  "SpacingBetweenSlices": 3.7,
  "StationName": "MRC35149",
  "TaskName": "bodyodor",
  "TotalReadoutTime": 0.0340802,
  "TxRefAmp": 307.202,
  "VendorReportedEchoSpacing": 0.00048,
  "dcmmeta_affine": [
    [-2.998304843902588, -0.0995594784617424, 0.019752338528633118, 109.42289733886719],
    [-0.0915064662694931, 2.486077308654785, -2.0678281784057617, -49.74311828613281],
    [-0.04236920177936554, 1.6761584281921387, 3.0681748390197754, -86.65357208251953],
    [0.0, 0.0, 0.0, 1.0]
],
  "dcmmeta_reorient_transform": [
    [0.0, -1.0, 0.0, 71.0],
    [1.0, 0.0, 0.0, 0.0],
    [0.0, 0.0, 1.0, 0.0],
    [0.0, 0.0, 0.0, 1.0]
],
  "dcmmeta_shape": [72, 72, 34, 452],
  "dcmmeta_slice_dim": 2,
  "dcmmeta_version": 0.6,
  "global": {
    "const": {
      "AcquisitionMatrix": [72, 0, 0, 72],
      "AngioFlag": "N",
      "BitsAllocated": 16,
      "BitsStored": 12,
      "Columns": 432,
      "EchoNumbers": 1,
      "EchoTime": 25.0,
      "EchoTrainLength": 1,
      "FlipAngle": 75.0,
      "HighBit": 11,
      "ImageOrientationPatient": [0.99943491906928, 0.03050215578767, -0.0141230675593, -0.033186492561, 0.82869245495814, -0.5587194929542],
      "ImagePositionPatient": [-624.12832186526, -590.73346481895, 341.68866591925],
      "ImageType": [
        "ORIGINAL",
        "PRIMARY",
        "M",
        "ND",
        "MOSAIC"
],
      "ImagedNucleus": "1H",
      "ImagingFrequency": 123.255006,
      "InPlanePhaseEncodingDirection": "COL",
      "MRAcquisitionType": "2D",
      "MagneticFieldStrength": 3.0,
      "Manufacturer": "SIEMENS",
      "ManufacturerModelName": "TrioTim",
      "Modality": "MR",
      "NumberOfAverages": 1.0,
      "NumberOfPhaseEncodingSteps": 72,
      "PercentPhaseFieldOfView": 100.0,
      "PercentSampling": 100.0,
      "PerformedProcedureStepStartTime": "120426.562000",
      "PhotometricInterpretation": "MONOCHROME2",
      "PixelBandwidth": 2395.0,
      "PixelRepresentation": 0,
      "PixelSpacing": [3.0, 3.0],
      "ProtocolName": "exp1_30_to_AC-PC",
      "RepetitionTime": 2000.0,
      "Rows": 432,
      "SAR": 0.1647290981112,
      "SamplesPerPixel": 1,
      "ScanOptions": "FS",
      "ScanningSequence": "EP",
      "SequenceName": "*epfid2d1_72",
      "SequenceVariant": "SK",
      "SeriesDescription": "exp1_30_to_AC-PC",
      "SeriesNumber": 3,
      "SeriesTime": "124547.796000",
      "SliceLocation": -43.472086782058,
      "SliceThickness": 3.7000000476837,
      "SmallestImagePixelValue": 0,
      "SoftwareVersions": "syngo MR B17",
      "SpacingBetweenSlices": 3.7000001029644,
      "SpecificCharacterSet": "ISO_IR 100",
      "StudyID": "1",
      "StudyTime": "120426.515000",
      "TransmitCoilName": "Body",
      "VariableFlipAngleFlag": "N",
      "WindowCenterWidthExplanation": "Algo1",
      "dBdt": 0.0},
    "slices": {}
  },
  "time": {
    "samples": {
      "AcquisitionNumber": [1, 2, 3, 4, 5, 6, 7, 8, 9, 10, 11, 12, 13, 14, 15, 16, 17, 18, 19, 20, 21, 22, 23, 24, 25, 26, 27, 28, 29, 30, 31, 32, 33, 34, 35, 36, 37, 38, 39, 40, 41, 42, 43, 44, 45, 46, 47, 48, 49, 50, 51, 52, 53, 54, 55, 56, 57, 58, 59, 60, 61, 62, 63, 64, 65, 66, 67, 68, 69, 70, 71, 72, 73, 74, 75, 76, 77, 78, 79, 80, 81, 82, 83, 84, 85, 86, 87, 88, 89, 90, 91, 92, 93, 94, 95, 96, 97, 98, 99, 100, 101, 102, 103, 104, 105, 106, 107, 108, 109, 110, 111, 112, 113, 114, 115, 116, 117, 118, 119, 120, 121, 122, 123, 124, 125, 126, 127, 128, 129, 130, 131, 132, 133, 134, 135, 136, 137, 138, 139, 140, 141, 142, 143, 144, 145, 146, 147, 148, 149, 150, 151, 152, 153, 154, 155, 156, 157, 158, 159, 160, 161, 162, 163, 164, 165, 166, 167, 168, 169, 170, 171, 172, 173, 174, 175, 176, 177, 178, 179, 180, 181, 182, 183, 184, 185, 186, 187, 188, 189, 190, 191, 192, 193, 194, 195, 196, 197, 198, 199, 200, 201, 202, 203, 204, 205, 206, 207, 208, 209, 210, 211, 212, 213, 214, 215, 216, 217, 218, 219, 220, 221, 222, 223, 224, 225, 226, 227, 228, 229, 230, 231, 232, 233, 234, 235, 236, 237, 238, 239, 240, 241, 242, 243, 244, 245, 246, 247, 248, 249, 250, 251, 252, 253, 254, 255, 256, 257, 258, 259, 260, 261, 262, 263, 264, 265, 266, 267, 268, 269, 270, 271, 272, 273, 274, 275, 276, 277, 278, 279, 280, 281, 282, 283, 284, 285, 286, 287, 288, 289, 290, 291, 292, 293, 294, 295, 296, 297, 298, 299, 300, 301, 302, 303, 304, 305, 306, 307, 308, 309, 310, 311, 312, 313, 314, 315, 316, 317, 318, 319, 320, 321, 322, 323, 324, 325, 326, 327, 328, 329, 330, 331, 332, 333, 334, 335, 336, 337, 338, 339, 340, 341, 342, 343, 344, 345, 346, 347, 348, 349, 350, 351, 352, 353, 354, 355, 356, 357, 358, 359, 360, 361, 362, 363, 364, 365, 366, 367, 368, 369, 370, 371, 372, 373, 374, 375, 376, 377, 378, 379, 380, 381, 382, 383, 384, 385, 386, 387, 388, 389, 390, 391, 392, 393, 394, 395, 396, 397, 398, 399, 400, 401, 402, 403, 404, 405, 406, 407, 408, 409, 410, 411, 412, 413, 414, 415, 416, 417, 418, 419, 420, 421, 422, 423, 424, 425, 426, 427, 428, 429, 430, 431, 432, 433, 434, 435, 436, 437, 438, 439, 440, 441, 442, 443, 444, 445, 446, 447, 448, 449, 450, 451, 452],
      "AcquisitionTime": ["124514.242500", "124516.252500", "124518.260000", "124520.267500", "124522.275000", "124524.282500", "124526.292500", "124528.300000", "124530.307500", "124532.315000", "124534.322500", "124536.332500", "124538.340000", "124540.347500", "124542.355000", "124544.365000", "124546.372500", "124548.380000", "124550.387500", "124552.395000", "124554.405000", "124556.412500", "124558.420000", "124600.427500", "124602.435000", "124604.445000", "124606.452500", "124608.460000", "124610.467500", "124612.477500", "124614.485000", "124616.492500", "124618.500000", "124620.507500", "124622.517500", "124624.525000", "124626.532500", "124628.540000", "124630.547500", "124632.557500", "124634.565000", "124636.572500", "124638.580000", "124640.587500", "124642.597500", "124644.605000", "124646.612500", "124648.620000", "124650.630000", "124652.637500", "124654.645000", "124656.652500", "124658.660000", "124700.670000", "124702.677500", "124704.685000", "124706.692500", "124708.700000", "124710.710000", "124712.717500", "124714.725000", "124716.732500", "124718.742500", "124720.750000", "124722.757500", "124724.765000", "124726.772500", "124728.782500", "124730.790000", "124732.797500", "124734.805000", "124736.812500", "124738.822500", "124740.830000", "124742.837500", "124744.845000", "124746.855000", "124748.862500", "124750.870000", "124752.877500", "124754.885000", "124756.895000", "124758.902500", "124800.910000", "124802.917500", "124804.925000", "124806.935000", "124808.942500", "124810.950000", "124812.957500", "124814.965000", "124816.975000", "124818.982500", "124820.990000", "124822.997500", "124825.007500", "124827.015000", "124829.022500", "124831.030000", "124833.037500", "124835.047500", "124837.055000", "124839.062500", "124841.070000", "124843.077500", "124845.087500", "124847.095000", "124849.102500", "124851.110000", "124853.120000", "124855.127500", "124857.135000", "124859.142500", "124901.150000", "124903.160000", "124905.167500", "124907.175000", "124909.182500", "124911.190000", "124913.200000", "124915.207500", "124917.215000", "124919.222500", "124921.232500", "124923.240000", "124925.247500", "124927.255000", "124929.262500", "124931.272500", "124933.280000", "124935.287500", "124937.295000", "124939.302500", "124941.312500", "124943.320000", "124945.327500", "124947.335000", "124949.345000", "124951.352500", "124953.360000", "124955.367500", "124957.375000", "124959.385000", "125001.392500", "125003.400000", "125005.407500", "125007.415000", "125009.425000", "125011.432500", "125013.440000", "125015.447500", "125017.455000", "125019.465000", "125021.472500", "125023.480000", "125025.487500", "125027.497500", "125029.505000", "125031.512500", "125033.520000", "125035.527500", "125037.537500", "125039.545000", "125041.552500", "125043.560000", "125045.567500", "125047.577500", "125049.585000", "125051.592500", "125053.600000", "125055.610000", "125057.617500", "125059.625000", "125101.632500", "125103.640000", "125105.650000", "125107.657500", "125109.665000", "125111.672500", "125113.680000", "125115.690000", "125117.697500", "125119.705000", "125121.712500", "125123.722500", "125125.730000", "125127.737500", "125129.745000", "125131.752500", "125133.762500", "125135.770000", "125137.777500", "125139.785000", "125141.792500", "125143.802500", "125145.810000", "125147.817500", "125149.825000", "125151.832500", "125153.842500", "125155.850000", "125157.857500", "125159.865000", "125201.875000", "125203.882500", "125205.890000", "125207.897500", "125209.905000", "125211.915000", "125213.922500", "125215.930000", "125217.937500", "125219.945000", "125221.955000", "125223.962500", "125225.970000", "125227.977500", "125229.987500", "125231.995000", "125234.002500", "125236.010000", "125238.017500", "125240.027500", "125242.035000", "125244.042500", "125246.050000", "125248.057500", "125250.067500", "125252.075000", "125254.082500", "125256.090000", "125258.100000", "125300.107500", "125302.115000", "125304.122500", "125306.130000", "125308.140000", "125310.147500", "125312.155000", "125314.162500", "125316.170000", "125318.180000", "125320.187500", "125322.195000", "125324.202500", "125326.210000", "125328.220000", "125330.227500", "125332.235000", "125334.242500", "125336.252500", "125338.260000", "125340.267500", "125342.275000", "125344.282500", "125346.292500", "125348.300000", "125350.307500", "125352.315000", "125354.322500", "125356.332500", "125358.340000", "125400.347500", "125402.355000", "125404.365000", "125406.372500", "125408.380000", "125410.387500", "125412.395000", "125414.405000", "125416.412500", "125418.420000", "125420.427500", "125422.435000", "125424.445000", "125426.452500", "125428.460000", "125430.467500", "125432.477500", "125434.485000", "125436.492500", "125438.500000", "125440.507500", "125442.517500", "125444.525000", "125446.532500", "125448.540000", "125450.547500", "125452.557500", "125454.565000", "125456.572500", "125458.580000", "125500.587500", "125502.597500", "125504.605000", "125506.612500", "125508.620000", "125510.630000", "125512.637500", "125514.645000", "125516.652500", "125518.660000", "125520.670000", "125522.677500", "125524.685000", "125526.692500", "125528.700000", "125530.710000", "125532.717500", "125534.725000", "125536.732500", "125538.742500", "125540.750000", "125542.757500", "125544.765000", "125546.772500", "125548.782500", "125550.790000", "125552.797500", "125554.805000", "125556.812500", "125558.822500", "125600.830000", "125602.837500", "125604.845000", "125606.855000", "125608.862500", "125610.870000", "125612.877500", "125614.885000", "125616.895000", "125618.902500", "125620.910000", "125622.917500", "125624.925000", "125626.935000", "125628.942500", "125630.950000", "125632.957500", "125634.965000", "125636.975000", "125638.982500", "125640.990000", "125642.997500", "125645.007500", "125647.015000", "125649.022500", "125651.030000", "125653.037500", "125655.047500", "125657.055000", "125659.062500", "125701.070000", "125703.077500", "125705.087500", "125707.095000", "125709.102500", "125711.110000", "125713.120000", "125715.127500", "125717.135000", "125719.142500", "125721.150000", "125723.160000", "125725.167500", "125727.175000", "125729.182500", "125731.190000", "125733.200000", "125735.207500", "125737.215000", "125739.222500", "125741.232500", "125743.240000", "125745.247500", "125747.255000", "125749.262500", "125751.272500", "125753.280000", "125755.287500", "125757.295000", "125759.302500", "125801.312500", "125803.320000", "125805.327500", "125807.335000", "125809.345000", "125811.352500", "125813.360000", "125815.367500", "125817.375000", "125819.385000", "125821.392500", "125823.400000", "125825.407500", "125827.415000", "125829.425000", "125831.432500", "125833.440000", "125835.447500", "125837.455000", "125839.465000", "125841.472500", "125843.480000", "125845.487500", "125847.497500", "125849.505000", "125851.512500", "125853.520000", "125855.527500", "125857.537500", "125859.545000", "125901.552500", "125903.560000", "125905.567500", "125907.577500", "125909.585000", "125911.592500", "125913.600000", "125915.610000", "125917.617500", "125919.625000", "125921.632500", "125923.640000", "125925.650000", "125927.657500", "125929.665000", "125931.672500", "125933.680000", "125935.690000", "125937.697500", "125939.705000", "125941.712500", "125943.722500", "125945.730000", "125947.737500", "125949.745000", "125951.752500", "125953.762500", "125955.770000", "125957.777500", "125959.785000", "130001.792500", "130003.802500", "130005.810000", "130007.817500", "130009.825000", "130011.832500", "130013.842500", "130015.850000", "130017.857500", "130019.865000"],
      "ContentTime": ["124547.812000", "124547.812000", "124547.812000", "124547.828000", "124547.828000", "124547.828000", "124547.828000", "124547.828000", "124547.828000", "124547.843000", "124547.843000", "124547.843000", "124547.843000", "124547.843000", "124547.843000", "124547.859000", "124547.859000", "124627.796000", "124627.796000", "124627.812000", "124627.812000", "124627.812000", "124627.812000", "124627.812000", "124627.812000", "124627.812000", "124627.828000", "124627.828000", "124627.828000", "124627.828000", "124627.828000", "124627.843000", "124627.843000", "124627.843000", "124627.843000", "124627.843000", "124627.843000", "124707.796000", "124707.796000", "124707.812000", "124707.812000", "124707.812000", "124707.828000", "124707.828000", "124707.828000", "124707.828000", "124707.828000", "124707.828000", "124707.828000", "124707.843000", "124707.843000", "124707.843000", "124707.843000", "124707.843000", "124707.843000", "124707.843000", "124707.859000", "124747.796000", "124747.796000", "124747.812000", "124747.812000", "124747.812000", "124747.812000", "124747.812000", "124747.812000", "124747.812000", "124747.828000", "124747.828000", "124747.828000", "124747.828000", "124747.828000", "124747.828000", "124747.828000", "124747.843000", "124747.843000", "124747.843000", "124747.843000", "124827.796000", "124827.796000", "124827.812000", "124827.812000", "124827.812000", "124827.812000", "124827.828000", "124827.828000", "124827.828000", "124827.828000", "124827.828000", "124827.843000", "124827.843000", "124827.843000", "124827.843000", "124827.843000", "124827.843000", "124827.859000", "124827.859000", "124827.859000", "124907.796000", "124907.796000", "124907.812000", "124907.812000", "124907.812000", "124907.812000", "124907.812000", "124907.812000", "124907.812000", "124907.828000", "124907.828000", "124907.828000", "124907.828000", "124907.828000", "124907.828000", "124907.828000", "124907.843000", "124907.843000", "124907.843000", "124907.843000", "124947.796000", "124947.796000", "124947.812000", "124947.812000", "124947.812000", "124947.812000", "124947.812000", "124947.828000", "124947.828000", "124947.828000", "124947.828000", "124947.828000", "124947.843000", "124947.843000", "124947.843000", "124947.843000", "124947.843000", "124947.843000", "124947.843000", "124947.859000", "125027.796000", "125027.796000", "125027.812000", "125027.812000", "125027.812000", "125027.812000", "125027.828000", "125027.828000", "125027.828000", "125027.828000", "125027.828000", "125027.828000", "125027.828000", "125027.843000", "125027.843000", "125027.843000", "125027.843000", "125027.843000", "125027.843000", "125027.843000", "125107.812000", "125107.812000", "125107.812000", "125107.812000", "125107.828000", "125107.828000", "125107.828000", "125107.828000", "125107.828000", "125107.828000", "125107.828000", "125107.843000", "125107.843000", "125107.843000", "125107.843000", "125107.843000", "125107.843000", "125107.843000", "125107.859000", "125107.859000", "125147.812000", "125147.812000", "125147.812000", "125147.812000", "125147.812000", "125147.828000", "125147.828000", "125147.828000", "125147.828000", "125147.828000", "125147.843000", "125147.843000", "125147.843000", "125147.843000", "125147.843000", "125147.843000", "125147.843000", "125147.859000", "125147.859000", "125147.859000", "125227.796000", "125227.812000", "125227.812000", "125227.812000", "125227.812000", "125227.828000", "125227.828000", "125227.828000", "125227.828000", "125227.843000", "125227.843000", "125227.843000", "125227.843000", "125227.843000", "125227.843000", "125227.859000", "125227.859000", "125227.859000", "125227.859000", "125227.859000", "125307.812000", "125307.812000", "125307.812000", "125307.812000", "125307.812000", "125307.812000", "125307.828000", "125307.828000", "125307.828000", "125307.828000", "125307.828000", "125307.828000", "125307.843000", "125307.843000", "125307.843000", "125307.843000", "125307.843000", "125307.859000", "125307.859000", "125307.859000", "125347.812000", "125347.812000", "125347.812000", "125347.812000", "125347.812000", "125347.812000", "125347.812000", "125347.828000", "125347.828000", "125347.828000", "125347.828000", "125347.828000", "125347.828000", "125347.828000", "125347.843000", "125347.843000", "125347.843000", "125347.843000", "125347.843000", "125347.859000", "125427.812000", "125427.812000", "125427.812000", "125427.812000", "125427.812000", "125427.812000", "125427.812000", "125427.828000", "125427.828000", "125427.828000", "125427.828000", "125427.828000", "125427.828000", "125427.828000", "125427.843000", "125427.843000", "125427.843000", "125427.843000", "125427.843000", "125427.859000", "125507.812000", "125507.812000", "125507.812000", "125507.812000", "125507.828000", "125507.828000", "125507.828000", "125507.843000", "125507.843000", "125507.843000", "125507.843000", "125507.843000", "125507.843000", "125507.843000", "125507.859000", "125507.859000", "125507.859000", "125507.859000", "125507.859000", "125507.859000", "125547.812000", "125547.812000", "125547.812000", "125547.812000", "125547.812000", "125547.828000", "125547.828000", "125547.828000", "125547.828000", "125547.828000", "125547.828000", "125547.828000", "125547.843000", "125547.843000", "125547.843000", "125547.843000", "125547.843000", "125547.843000", "125547.843000", "125547.859000", "125627.812000", "125627.812000", "125627.812000", "125627.812000", "125627.812000", "125627.812000", "125627.812000", "125627.828000", "125627.828000", "125627.828000", "125627.828000", "125627.828000", "125627.828000", "125627.828000", "125627.843000", "125627.843000", "125627.843000", "125627.843000", "125627.843000", "125627.843000", "125707.812000", "125707.812000", "125707.812000", "125707.812000", "125707.812000", "125707.812000", "125707.812000", "125707.828000", "125707.828000", "125707.828000", "125707.828000", "125707.828000", "125707.828000", "125707.828000", "125707.843000", "125707.843000", "125707.843000", "125707.843000", "125707.843000", "125707.843000", "125747.812000", "125747.812000", "125747.812000", "125747.812000", "125747.812000", "125747.812000", "125747.812000", "125747.828000", "125747.828000", "125747.828000", "125747.828000", "125747.828000", "125747.828000", "125747.828000", "125747.843000", "125747.843000", "125747.843000", "125747.843000", "125747.859000", "125747.859000", "125827.812000", "125827.812000", "125827.812000", "125827.812000", "125827.812000", "125827.812000", "125827.812000", "125827.828000", "125827.828000", "125827.828000", "125827.828000", "125827.828000", "125827.828000", "125827.828000", "125827.843000", "125827.843000", "125827.843000", "125827.843000", "125827.843000", "125827.843000", "125907.812000", "125907.812000", "125907.812000", "125907.812000", "125907.812000", "125907.812000", "125907.812000", "125907.828000", "125907.828000", "125907.828000", "125907.828000", "125907.828000", "125907.828000", "125907.828000", "125907.843000", "125907.843000", "125907.843000", "125907.843000", "125907.843000", "125907.843000", "125947.812000", "125947.812000", "125947.812000", "125947.812000", "125947.828000", "125947.828000", "125947.828000", "125947.828000", "125947.828000", "125947.828000", "125947.828000", "125947.843000", "125947.843000", "125947.843000", "125947.843000", "125947.843000", "125947.843000", "125947.843000", "125947.859000", "125947.859000", "130018.234000", "130018.234000", "130018.250000", "130018.250000", "130018.250000", "130018.250000", "130018.250000", "130018.265000", "130018.265000", "130018.265000", "130018.281000", "130018.281000", "130018.281000", "130018.281000", "130018.281000"],
